<xrdMeasurements xmlns="http://www.xrdml.com/XRDMeasurement/2.1" xmlns:xsi="http://www.w3.org/2001/XMLSchema-instance" xsi:schemaLocation="http://www.xrdml.com/XRDMeasurement/2.1 http://www.xrdml.com/XRDMeasurement/2.1/XRDMeasurement.xsd" status="Completed">
	<comment>
		<entry>Configuration=Safe configuration, Owner=user, Creation date=14-Sep-09 9:17:06 AM</entry>
		<entry>Goniometer=PW3050/65 (Theta/2Theta); Minimum step size 2Theta:0.0001; Minimum step size Omega:0.0001</entry>
		<entry>Sample stage=MRD Cradle; Minimum step size Phi:0.01; Minimum step size Chi:0.01; Minimum step size X:0.01; Minimum step size Y:0.01; Minimum step size Z:0.001</entry>
		<entry>Diffractometer system=XPERT-PRO</entry>
		<entry>Measurement program=C:\PANalytical\Data Collector\Programs\Moritz_om2th_t.xrdmp, Identifier={928F8E65-EDCE-4496-861E-B4E25ADF243A}</entry>
		<entry>Fine Calibration Offset for 2Theta = -0.0872 deg</entry>
	</comment>
	<sample type="To be analyzed">
		<id></id>
		<name></name>
		<preparedBy></preparedBy>
	</sample>
	<xrdMeasurement measurementType="Scan" status="Completed" sampleMode="Reflection">
		<comment>
			<entry>m54313</entry>
			<entry>PHD Lower Level = 5.63 (keV), PHD Upper Level = 12.87 (keV)</entry>
		</comment>
		<usedWavelength intended="K-Alpha">
			<kAlpha1 unit="Angstrom">1.5405980</kAlpha1>
			<kAlpha2 unit="Angstrom">1.5444260</kAlpha2>
			<kBeta unit="Angstrom">1.3922500</kBeta>
			<ratioKAlpha2KAlpha1>0.5000</ratioKAlpha2KAlpha1>
		</usedWavelength>
		<incidentBeamPath>
			<radius unit="mm">320.00</radius>
			<xRayTube id="1010048" name="Empyrean Cu LFF HR (9430 033 7310x) DK430398">
				<tension unit="kV">40.0</tension>
				<current unit="mA">40.0</current>
				<anodeMaterial>Cu</anodeMaterial>
				<focus type="Line">
					<length unit="mm">12.0</length>
					<width unit="mm">0.4</width>
					<takeOffAngle unit="deg">4.2</takeOffAngle>
				</focus>
			</xRayTube>
			<xRayMirror id="27090001" name="Inc. Beam Cu W/Si (hybrid MRD)" hybrid="true">
				<crystal type="Graded" shape="Parabolic">W/Si</crystal>
				<acceptanceAngle unit="deg">0.800</acceptanceAngle>
				<length unit="mm">60.0</length>
			</xRayMirror>
			<monochromator id="23090002" name="Hybrid monochr. 2xGe(220) Cu asym." hybrid="true">
				<crystal type="Asymmetric" shape="Flat">Ge</crystal>
				<numberOfReflections>2</numberOfReflections>
				<hkl>
					<h>2</h>
					<k>2</k>
					<l>0</l>
				</hkl>
			</monochromator>
			<sollerSlit id="21010002" name="Soller slits 0.04 rad.">
				<opening unit="rad">0.0400</opening>
			</sollerSlit>
			<mask id="22030014" name="Fixed mask 1 mm  (rocking curve and triple axis)">
				<width unit="mm">1.00</width>
			</mask>
			<divergenceSlit id="22010004" name="Fixed slit 1/2Â°" xsi:type="fixedDivergenceSlitType">
				<distanceToSample unit="mm">220.00</distanceToSample>
				<height unit="mm">0.76</height>
			</divergenceSlit>
			<beamAttenuator id="26010001" name="Progr. beam attenuator Ni 0.125 mm" xsi:type="intensitySwitchedBeamAttenuatorType">
				<factor>188.00</factor>
				<material>Ni</material>
				<activateLevel unit="counts per second">500000</activateLevel>
				<deactivateLevel unit="counts per second">400000</deactivateLevel>
			</beamAttenuator>
		</incidentBeamPath>
		<sampleOffset>
			<position axis="2Theta" unit="deg">0.0000</position>
			<position axis="Omega" unit="deg">-0.2165</position>
		</sampleOffset>
		<diffractedBeamPath>
			<radius unit="mm">320.00</radius>
			<receivingSlit id="22020011" name="Fixed slit 1 mm (rocking curve and triple axis)">
				<height unit="mm">1.00</height>
			</receivingSlit>
			<detector id="7010011" name="Proportional detector Xe" xsi:type="pointDetectorType">
				<phd unit="%">
					<lowerLevel>35.0</lowerLevel>
					<upperLevel>80.0</upperLevel>
				</phd>
			</detector>
		</diffractedBeamPath>
		<scan appendNumber="0" mode="Continuous" scanAxis="2Theta-Omega" status="Completed">
			<header>
				<startTimeStamp>2022-09-26T17:05:54+02:00</startTimeStamp>
				<endTimeStamp>2022-09-26T17:21:44+02:00</endTimeStamp>
				<author>
					<name>User</name>
				</author>
				<source>
					<applicationSoftware version="6.1">Data Collector</applicationSoftware>
					<instrumentControlSoftware version="2.2F 20161117">XPERT-PRO</instrumentControlSoftware>
					<instrumentID>0000000000001263</instrumentID>
				</source>
			</header>
			<dataPoints>
				<positions axis="2Theta" unit="deg">
					<startPosition>26.0250</startPosition>
					<endPosition>79.9950</endPosition>
				</positions>
				<positions axis="Omega" unit="deg">
					<startPosition>12.8560</startPosition>
					<endPosition>39.8410</endPosition>
				</positions>
				<positions axis="Phi" unit="deg">
					<commonPosition>0.00</commonPosition>
				</positions>
				<positions axis="Chi" unit="deg">
					<commonPosition>0.00</commonPosition>
				</positions>
				<positions axis="X" unit="mm">
					<commonPosition>-0.18</commonPosition>
				</positions>
				<positions axis="Y" unit="mm">
					<commonPosition>-1.90</commonPosition>
				</positions>
				<positions axis="Z" unit="mm">
					<commonPosition>6.317</commonPosition>
				</positions>
				<beamAttenuationFactors>1.00 1.00 1.00 1.00 1.00 1.00 1.00 1.00 1.00 1.00 1.00 1.00 1.00 1.00 1.00 1.00 1.00 1.00 1.00 1.00 1.00 1.00 1.00 1.00 1.00 1.00 1.00 1.00 1.00 1.00 1.00 1.00 1.00 1.00 1.00 1.00 1.00 1.00 1.00 1.00 1.00 1.00 1.00 1.00 1.00 1.00 1.00 1.00 1.00 1.00 1.00 1.00 1.00 1.00 1.00 1.00 1.00 1.00 1.00 1.00 1.00 1.00 1.00 1.00 1.00 1.00 1.00 1.00 1.00 1.00 1.00 1.00 1.00 1.00 1.00 1.00 1.00 1.00 1.00 1.00 1.00 1.00 1.00 1.00 1.00 1.00 1.00 1.00 1.00 1.00 1.00 1.00 1.00 1.00 1.00 1.00 1.00 1.00 1.00 1.00 1.00 1.00 1.00 1.00 1.00 1.00 1.00 1.00 1.00 1.00 1.00 1.00 1.00 1.00 1.00 1.00 1.00 1.00 1.00 1.00 1.00 1.00 1.00 1.00 1.00 1.00 1.00 1.00 1.00 1.00 1.00 1.00 1.00 1.00 1.00 1.00 1.00 1.00 1.00 1.00 1.00 1.00 1.00 1.00 1.00 1.00 1.00 1.00 1.00 1.00 1.00 1.00 1.00 1.00 1.00 1.00 1.00 1.00 1.00 1.00 1.00 1.00 1.00 1.00 1.00 1.00 1.00 1.00 1.00 1.00 1.00 1.00 1.00 1.00 1.00 1.00 1.00 1.00 1.00 1.00 1.00 1.00 1.00 1.00 1.00 1.00 1.00 1.00 1.00 1.00 1.00 1.00 1.00 1.00 1.00 1.00 1.00 1.00 1.00 1.00 1.00 1.00 1.00 1.00 1.00 1.00 1.00 1.00 1.00 1.00 1.00 1.00 1.00 1.00 1.00 1.00 1.00 1.00 1.00 1.00 1.00 1.00 1.00 1.00 1.00 1.00 1.00 1.00 1.00 1.00 1.00 1.00 1.00 1.00 1.00 1.00 1.00 1.00 1.00 1.00 1.00 1.00 1.00 1.00 1.00 1.00 1.00 1.00 1.00 1.00 1.00 1.00 1.00 1.00 1.00 1.00 1.00 1.00 1.00 1.00 1.00 1.00 1.00 1.00 1.00 1.00 1.00 1.00 1.00 1.00 1.00 1.00 1.00 1.00 1.00 1.00 1.00 1.00 1.00 1.00 1.00 1.00 1.00 1.00 1.00 1.00 1.00 1.00 1.00 1.00 1.00 1.00 1.00 1.00 1.00 1.00 1.00 1.00 1.00 1.00 1.00 1.00 1.00 1.00 1.00 1.00 1.00 1.00 1.00 1.00 1.00 1.00 1.00 1.00 1.00 1.00 1.00 1.00 1.00 1.00 1.00 1.00 1.00 1.00 1.00 1.00 1.00 1.00 1.00 1.00 1.00 1.00 1.00 1.00 1.00 1.00 1.00 1.00 1.00 1.00 1.00 1.00 1.00 1.00 1.00 1.00 1.00 1.00 1.00 1.00 1.00 1.00 1.00 1.00 1.00 1.00 1.00 1.00 1.00 1.00 1.00 1.00 1.00 1.00 1.00 1.00 1.00 1.00 1.00 1.00 1.00 1.00 1.00 1.00 1.00 1.00 1.00 1.00 1.00 1.00 1.00 1.00 1.00 1.00 1.00 1.00 1.00 1.00 1.00 1.00 1.00 1.00 1.00 1.00 1.00 1.00 1.00 1.00 1.00 1.00 1.00 1.00 1.00 1.00 1.00 1.00 1.00 1.00 1.00 1.00 1.00 1.00 1.00 1.00 1.00 1.00 1.00 1.00 1.00 1.00 1.00 1.00 1.00 1.00 1.00 1.00 1.00 1.00 1.00 1.00 1.00 1.00 1.00 1.00 1.00 1.00 1.00 1.00 1.00 1.00 1.00 1.00 1.00 1.00 1.00 1.00 1.00 1.00 1.00 1.00 1.00 1.00 1.00 1.00 1.00 1.00 1.00 1.00 1.00 1.00 1.00 1.00 1.00 1.00 1.00 1.00 1.00 1.00 1.00 1.00 1.00 1.00 1.00 1.00 1.00 1.00 1.00 1.00 1.00 1.00 1.00 1.00 1.00 1.00 1.00 1.00 1.00 1.00 1.00 1.00 1.00 1.00 1.00 1.00 1.00 1.00 1.00 1.00 1.00 1.00 1.00 1.00 1.00 1.00 1.00 1.00 1.00 1.00 1.00 1.00 1.00 1.00 1.00 1.00 1.00 1.00 1.00 1.00 1.00 1.00 1.00 1.00 1.00 1.00 1.00 1.00 1.00 1.00 1.00 1.00 1.00 1.00 1.00 1.00 1.00 1.00 1.00 1.00 1.00 1.00 1.00 1.00 1.00 1.00 1.00 1.00 1.00 1.00 1.00 1.00 1.00 1.00 1.00 1.00 1.00 1.00 1.00 1.00 1.00 1.00 1.00 1.00 1.00 1.00 1.00 1.00 1.00 1.00 1.00 1.00 1.00 1.00 1.00 1.00 1.00 1.00 1.00 1.00 1.00 1.00 1.00 1.00 1.00 1.00 1.00 1.00 1.00 1.00 1.00 1.00 1.00 1.00 1.00 1.00 1.00 1.00 1.00 1.00 1.00 1.00 1.00 1.00 1.00 1.00 1.00 1.00 1.00 1.00 1.00 1.00 1.00 1.00 1.00 1.00 1.00 1.00 1.00 1.00 1.00 1.00 1.00 1.00 1.00 1.00 1.00 1.00 1.00 1.00 1.00 1.00 1.00 1.00 1.00 1.00 1.00 1.00 1.00 1.00 1.00 1.00 1.00 1.00 1.00 1.00 1.00 1.00 1.00 1.00 1.00 1.00 1.00 1.00 1.00 1.00 1.00 1.00 1.00 1.00 1.00 1.00 1.00 1.00 1.00 1.00 1.00 1.00 1.00 1.00 1.00 1.00 1.00 1.00 1.00 1.00 1.00 1.00 1.00 1.00 1.00 1.00 1.00 1.00 1.00 1.00 1.00 1.00 1.00 1.00 1.00 1.00 1.00 1.00 1.00 1.00 1.00 1.00 1.00 1.00 1.00 1.00 1.00 1.00 1.00 1.00 1.00 1.00 1.00 1.00 1.00 1.00 1.00 1.00 1.00 1.00 1.00 1.00 1.00 1.00 1.00 1.00 1.00 1.00 1.00 1.00 1.00 1.00 1.00 1.00 1.00 1.00 1.00 1.00 1.00 1.00 1.00 1.00 1.00 1.00 1.00 1.00 1.00 1.00 1.00 1.00 1.00 1.00 1.00 1.00 1.00 1.00 1.00 1.00 1.00 1.00 1.00 1.00 1.00 1.00 1.00 1.00 1.00 1.00 1.00 1.00 1.00 1.00 1.00 1.00 1.00 1.00 1.00 1.00 1.00 1.00 1.00 1.00 1.00 1.00 1.00 1.00 1.00 1.00 1.00 1.00 1.00 1.00 1.00 1.00 1.00 1.00 1.00 1.00 1.00 1.00 1.00 1.00 1.00 1.00 1.00 1.00 1.00 1.00 1.00 1.00 1.00 1.00 1.00 1.00 1.00 1.00 1.00 1.00 1.00 1.00 1.00 1.00 1.00 1.00 1.00 1.00 1.00 1.00 1.00 1.00 1.00 1.00 1.00 1.00 1.00 1.00 1.00 1.00 1.00 1.00 1.00 1.00 1.00 1.00 1.00 1.00 1.00 1.00 1.00 1.00 1.00 1.00 1.00 1.00 1.00 1.00 1.00 1.00 1.00 1.00 1.00 1.00 1.00 1.00 1.00 1.00 1.00 1.00 1.00 1.00 1.00 1.00 1.00 1.00 1.00 1.00 1.00 1.00 1.00 1.00 1.00 1.00 1.00 1.00 1.00 1.00 1.00 1.00 1.00 1.00 1.00 1.00 1.00 1.00 1.00 1.00 1.00 1.00 1.00 1.00 1.00 1.00 1.00 1.00 1.00 1.00 1.00 1.00 1.00 1.00 1.00 1.00 1.00 1.00 1.00 1.00 1.00 1.00 1.00 1.00 1.00 1.00 1.00 1.00 1.00 1.00 1.00 1.00 1.00 1.00 1.00 1.00 1.00 1.00 1.00 1.00 1.00 1.00 1.00 1.00 1.00 1.00 1.00 1.00 1.00 1.00 1.00 1.00 1.00 1.00 1.00 1.00 1.00 1.00 1.00 1.00 1.00 1.00 1.00 1.00 1.00 1.00 1.00 1.00 1.00 1.00 1.00 1.00 1.00 1.00 1.00 1.00 1.00 1.00 1.00 1.00 1.00 1.00 1.00 1.00 1.00 1.00 1.00 1.00 1.00 1.00 1.00 1.00 1.00 1.00 1.00 1.00 1.00 1.00 1.00 1.00 1.00 1.00 1.00 1.00 1.00 1.00 1.00 1.00 1.00 1.00 1.00 1.00 1.00 1.00 1.00 1.00 1.00 1.00 1.00 1.00 1.00 1.00 1.00 1.00 1.00 1.00 1.00 1.00 1.00 1.00 1.00 1.00 1.00 1.00 1.00 1.00 1.00 1.00 1.00 1.00 1.00 1.00 1.00 1.00 1.00 1.00 1.00 1.00 1.00 1.00 1.00 1.00 1.00 1.00 1.00 1.00 1.00 1.00 1.00 1.00 1.00 1.00 1.00 1.00 1.00 1.00 1.00 1.00 1.00 1.00 1.00 1.00 1.00 1.00 1.00 1.00 1.00 1.00 1.00 1.00 1.00 1.00 1.00 1.00 1.00 1.00 1.00 1.00 1.00 1.00 1.00 1.00 1.00 1.00 1.00 1.00 1.00 1.00 1.00 1.00 1.00 1.00 1.00 1.00 1.00 1.00 1.00 1.00 1.00 1.00 1.00 1.00 1.00 1.00 1.00 1.00 1.00 1.00 1.00 1.00 1.00 1.00 1.00 1.00 1.00 1.00 1.00 1.00 1.00 1.00 1.00 1.00 1.00 1.00 1.00 1.00 1.00 1.00 1.00 1.00 1.00 1.00 1.00 1.00 1.00 1.00 1.00 1.00 1.00 1.00 1.00 1.00 1.00 1.00 1.00 1.00 1.00 1.00 1.00 1.00 1.00 1.00 1.00 1.00 1.00 1.00 1.00 1.00 1.00 1.00 1.00 1.00 1.00 1.00 1.00 1.00 1.00 1.00 1.00 1.00 1.00 1.00 1.00 1.00 1.00 1.00 1.00 1.00 1.00 1.00 1.00 1.00 1.00 1.00 1.00 1.00 1.00 1.00 1.00 1.00 1.00 1.00 1.00 1.00 1.00 1.00 1.00 1.00 1.00 1.00 1.00 1.00 1.00 1.00 1.00 1.00 1.00 1.00 1.00 1.00 1.00 1.00 1.00 1.00 1.00 1.00 1.00 1.00 1.00 1.00 1.00 1.00 1.00 1.00 1.00 1.00 1.00 1.00 1.00 1.00 1.00 1.00 1.00 1.00 1.00 1.00 1.00 1.00 1.00 1.00 1.00 1.00 1.00 1.00 1.00 1.00 1.00 1.00 1.00 1.00 1.00 1.00 1.00 1.00 1.00 1.00 1.00 1.00 1.00 1.00 1.00 1.00 1.00 1.00 1.00 1.00 1.00 1.00 1.00 1.00 1.00 1.00 1.00 1.00 1.00 1.00 1.00 1.00 1.00 1.00 1.00 1.00 1.00 1.00 1.00 1.00 1.00 1.00 1.00 1.00 1.00 1.00 1.00 1.00 1.00 1.00 1.00 1.00 1.00 1.00 1.00 1.00 1.00 1.00 1.00 1.00 1.00 1.00 1.00 1.00 1.00 1.00 1.00 1.00 1.00 1.00 1.00 1.00 1.00 1.00 1.00 1.00 1.00 1.00 1.00 1.00 1.00 1.00 1.00 1.00 1.00 1.00 1.00 1.00 1.00 1.00 188.00 1.00 1.00 1.00 1.00 1.00 1.00 1.00 1.00 1.00 1.00 1.00 1.00 1.00 1.00 1.00 1.00 1.00 1.00 1.00 1.00 1.00 1.00 1.00 1.00 1.00 1.00 1.00 1.00 1.00 1.00 1.00 1.00 1.00 1.00 1.00 1.00 1.00 1.00 1.00 1.00 1.00 1.00 1.00 1.00 1.00 1.00 1.00 1.00 1.00 1.00 1.00 1.00 1.00 1.00 1.00 1.00 1.00 1.00 1.00 1.00 1.00 1.00 1.00 1.00 1.00 1.00 1.00 1.00 1.00 1.00 1.00 1.00 1.00 1.00 1.00 1.00 1.00 1.00 1.00 1.00 1.00 1.00 1.00 1.00 1.00 1.00 1.00 1.00 1.00 1.00 1.00 1.00 1.00 1.00 1.00 1.00 1.00 1.00 1.00 1.00 1.00 1.00 1.00 1.00 1.00 1.00 1.00 1.00 1.00 1.00 1.00 1.00 1.00 1.00 1.00 1.00 1.00 1.00 1.00 1.00 1.00 1.00 1.00 1.00 1.00 1.00 1.00 1.00 1.00 1.00 1.00 1.00 1.00 1.00 1.00 1.00 1.00 1.00 1.00 1.00 1.00 1.00 1.00 1.00 1.00 1.00 1.00 1.00 1.00 1.00 1.00 1.00 1.00 1.00 1.00 1.00 1.00 1.00 1.00 1.00 1.00 1.00 1.00 1.00 1.00 1.00 1.00 1.00 1.00 1.00 1.00 1.00 1.00 1.00 1.00 1.00 1.00 1.00 1.00 1.00 1.00 1.00 1.00 1.00 1.00 1.00 1.00 1.00 1.00 1.00 1.00 1.00 1.00 1.00 1.00 1.00 1.00 1.00 1.00 1.00 1.00 1.00 1.00 1.00 1.00 1.00 1.00 1.00 1.00 1.00 1.00 1.00 1.00 1.00 1.00 1.00 1.00 1.00 1.00 1.00 1.00 1.00 1.00 1.00 1.00 1.00 1.00 1.00 1.00 1.00 1.00 1.00 1.00 1.00 1.00 1.00 1.00 1.00 1.00 1.00 1.00 1.00 1.00 1.00 1.00 1.00 1.00 1.00 1.00 1.00 1.00 1.00 1.00 1.00 1.00 1.00 1.00 1.00 1.00 1.00 1.00 1.00 1.00 1.00 1.00 1.00 1.00 1.00 1.00 1.00 1.00 1.00 1.00 1.00 1.00 1.00 1.00 1.00 1.00 1.00 1.00 1.00 1.00 1.00 1.00 1.00 1.00 1.00 1.00 1.00 1.00 1.00 1.00 1.00 1.00 1.00 1.00 1.00 1.00 1.00 1.00 1.00 1.00 1.00 1.00 1.00 1.00 1.00 1.00 1.00 1.00 1.00 1.00 1.00 1.00 1.00 1.00 1.00 1.00 1.00 1.00 1.00 1.00 1.00 1.00 1.00 1.00 1.00 1.00 1.00 1.00 1.00 1.00 1.00 1.00 1.00 1.00 1.00 1.00 1.00 1.00 1.00 1.00 1.00 1.00 1.00 1.00 1.00 1.00 1.00 1.00 1.00 1.00 1.00 1.00 1.00 1.00 1.00 1.00 1.00 1.00 1.00 1.00 1.00 1.00 1.00 1.00 1.00 1.00 1.00 1.00 1.00 1.00 1.00 1.00 1.00 1.00 1.00 1.00 1.00 1.00 1.00 1.00 1.00 1.00 1.00 1.00 1.00 1.00 1.00 1.00 1.00 1.00 1.00 1.00 1.00 1.00 1.00 1.00 1.00 1.00 1.00 1.00 1.00 1.00 1.00 1.00 1.00 1.00 1.00 1.00 1.00 1.00 1.00 1.00 1.00 1.00 1.00 1.00 1.00 1.00 1.00 1.00 1.00 1.00 1.00 1.00 1.00 1.00 1.00 1.00 1.00 1.00 1.00 1.00 1.00 1.00 1.00 1.00 1.00 1.00 1.00 1.00 1.00 1.00 1.00 1.00 1.00 1.00 1.00 1.00 1.00 1.00 1.00 1.00 1.00 1.00 1.00 1.00 1.00 1.00 1.00 1.00</beamAttenuationFactors>
				<commonCountingTime unit="seconds">0.50</commonCountingTime>
				<counts unit="counts">0 0 0 0 0 0 2 2 0 3 2 0 2 2 1 0 2 2 0 1 1 0 1 2 3 0 1 0 1 0 1 0 0 1 1 0 2 2 4 1 2 3 3 3 1 1 2 1 2 3 2 2 0 1 0 0 2 3 4 2 2 0 2 0 4 1 0 1 1 1 0 1 2 3 2 3 5 2 1 1 1 1 2 1 1 6 1 1 3 2 4 4 6 5 4 3 1 2 1 1 2 2 3 1 5 1 4 2 1 2 5 3 3 1 0 3 8 1 6 2 5 4 7 1 7 6 4 6 2 6 6 3 6 1 2 3 4 3 4 3 5 5 2 3 0 3 3 5 4 3 1 3 4 1 2 4 6 4 6 4 12 5 13 10 7 10 11 16 15 14 18 20 15 24 19 37 23 36 40 44 23 49 40 48 58 79 94 204 3347 8676 82 26 14 6 3 6 6 8 6 10 16 14 26 22 32 25 39 38 43 52 68 51 66 67 72 65 80 82 80 78 79 93 111 100 104 114 101 136 126 113 124 125 113 124 121 126 125 109 105 143 140 113 120 118 106 84 115 110 94 90 66 87 77 47 71 79 77 59 77 60 55 49 56 56 50 30 36 32 38 32 25 24 19 17 16 19 19 16 7 10 5 9 5 5 6 3 7 5 7 10 2 8 8 4 5 9 7 8 7 4 7 11 17 5 11 7 19 11 8 16 17 10 12 8 7 10 5 9 6 5 4 2 4 3 2 3 4 5 3 3 2 1 3 4 6 4 5 4 4 8 3 6 6 3 3 5 4 6 4 2 4 1 1 3 3 2 2 3 2 3 2 2 1 1 1 2 1 1 1 2 2 1 1 3 2 1 3 2 1 1 0 2 1 1 2 3 4 1 1 3 0 2 3 2 1 2 1 4 0 1 1 0 4 2 2 1 1 1 0 5 3 0 0 1 0 1 4 3 2 0 0 1 2 1 2 2 0 2 2 0 2 0 1 2 3 2 3 2 2 2 2 1 4 4 2 2 0 3 4 0 2 0 1 1 4 3 2 2 1 2 1 3 3 0 2 5 1 0 0 3 1 1 1 0 1 4 2 6 2 4 4 2 6 2 1 3 1 0 5 2 0 4 0 4 2 3 1 0 4 4 2 1 1 4 1 2 1 1 2 7 1 3 0 1 4 4 3 1 0 1 1 2 1 0 1 2 0 2 1 2 1 3 4 1 5 1 2 4 2 1 1 2 3 3 5 0 3 0 1 3 2 1 1 3 1 2 2 2 1 1 2 4 0 3 3 1 4 2 3 1 3 2 1 2 2 2 1 0 1 2 2 0 1 1 2 2 1 1 0 1 1 3 3 2 5 0 5 0 2 0 1 1 2 2 1 2 2 1 3 3 1 4 1 1 2 1 1 1 2 3 3 1 2 3 2 0 1 3 2 4 3 2 3 3 4 2 3 3 1 1 3 1 4 3 0 2 2 2 1 2 0 1 3 0 2 2 5 1 3 2 0 2 0 1 1 3 1 3 3 2 1 1 4 2 3 2 1 1 0 2 5 3 1 1 2 2 1 2 3 2 2 2 2 4 5 2 3 2 0 5 1 1 2 1 0 2 0 2 1 2 2 2 2 0 4 1 2 1 1 4 1 1 3 2 1 3 2 1 2 1 0 2 1 4 2 3 2 3 1 4 3 3 4 3 4 4 4 2 1 3 2 2 1 3 2 5 3 4 1 0 2 5 2 5 2 0 4 0 5 1 2 3 2 2 2 3 7 2 2 3 5 3 4 3 4 7 8 5 8 6 5 3 2 6 8 11 14 9 21 9 9 8 16 15 9 9 15 13 18 15 13 15 16 16 8 13 15 19 22 27 15 15 16 14 14 19 17 15 13 14 12 10 10 10 7 13 6 9 8 5 6 6 5 5 3 9 5 7 5 5 7 10 6 4 7 0 3 2 2 2 5 3 0 3 1 1 5 1 3 0 3 4 2 5 2 2 3 1 1 0 0 1 4 1 3 2 1 1 1 2 3 5 4 3 3 0 3 3 3 1 4 3 3 2 4 5 1 0 4 2 1 3 2 2 1 2 4 2 1 2 1 3 4 4 3 4 2 3 3 0 2 3 5 2 1 2 0 3 1 1 2 3 4 1 0 1 3 4 4 1 4 1 0 3 2 1 1 2 3 3 2 1 1 1 2 3 2 5 1 2 3 1 3 4 3 1 4 2 2 4 2 3 4 4 3 0 1 2 2 2 3 4 6 3 3 4 1 1 1 2 1 1 3 2 3 2 1 1 1 7 4 2 2 3 1 3 1 4 3 6 2 1 3 0 4 2 0 1 1 7 1 0 1 2 0 1 3 2 2 3 1 1 2 2 3 1 2 2 1 2 0 4 2 2 5 3 1 4 0 6 2 1 3 2 1 2 0 2 2 1 1 3 5 3 3 1 0 3 4 3 5 1 4 1 2 2 2 0 0 0 1 1 0 2 1 1 1 5 1 2 3 1 6 0 1 2 3 3 2 2 3 0 3 3 0 0 0 4 3 2 0 2 4 2 4 3 3 1 4 4 2 1 3 1 2 2 3 2 8 4 3 3 2 3 2 3 0 3 2 3 6 2 3 3 2 2 1 2 4 1 5 1 4 0 4 4 5 0 4 2 4 2 1 2 0 5 3 3 3 6 4 2 4 1 2 3 2 2 2 4 3 2 2 1 7 5 1 4 11 5 8 3 5 4 3 2 3 3 1 4 4 1 5 2 6 4 1 7 6 2 2 6 7 3 4 6 9 0 5 3 8 9 2 3 6 8 2 6 4 5 1 5 10 8 3 1 6 5 9 4 7 4 6 6 4 5 7 8 9 9 6 9 10 8 8 9 8 5 9 12 3 4 9 9 5 9 9 6 9 11 10 13 10 16 14 10 20 12 16 15 13 26 18 20 15 14 15 11 18 10 17 28 20 16 27 37 19 30 28 19 21 28 30 34 38 35 34 42 65 48 56 70 69 78 99 114 121 148 170 233 307 363 526 670 1341 14602 1877 13749 1667 537 263 217 150 119 108 89 78 63 60 49 53 47 43 31 43 27 31 28 24 25 18 29 31 20 16 23 21 22 22 19 22 25 20 30 21 23 20 31 20 23 20 13 22 20 18 13 13 14 19 12 18 16 19 19 6 13 8 10 11 8 15 9 11 11 12 17 15 17 16 13 16 19 16 13 23 23 33 22 32 25 24 27 40 43 37 53 47 41 55 46 48 47 48 55 57 43 56 46 59 45 74 46 46 37 46 40 45 42 34 36 38 36 47 39 31 33 30 28 23 24 30 19 17 32 20 17 21 14 17 12 17 17 14 16 14 8 6 10 7 7 6 7 5 9 7 7 1 6 4 4 5 9 5 3 3 1 4 3 3 4 2 4 2 4 3 3 1 4 6 3 0 1 1 3 2 1 1 1 0 3 4 1 2 1 2 3 2 4 2 6 1 5 7 2 3 2 3 1 2 2 4 7 5 1 1 2 3 5 4 2 1 5 2 3 2 5 1 3 0 2 2 2 2 2 3 3 0 1 4 0 3 1 2 2 5 5 4 3 4 0 1 4 3 4 0 2 1 1 2 4 2 3 1 3 0 3 1 0 1 1 1 0 2 0 2 2 1 0 2 1 3 1 0 2 0 0 2 0 1 1 5 0 0 2 1 0 1 0 4 3 0 0 2 1 0 0 4 0 2 2 1 1 1 4 1 1 1 3 1 2 2 1 3 2 2 0 2 2 0 3 0 0 3 1 1 0 0 2 1 2 0 1 0 0 2 2 3 6 1 0 1 1 2 1 2 2 3 5 3 1 2 0 0 2 2 1 2 1 2 1 2 2 0 1 1 0 0 3 1 1 1 1 1 2 3 0 1 0 1 3 1 0 1 4 1 0 3 0 2 4 2 3 1 0 2 3 4 1 2 3 0 5 1 0 2 1 1 1 3 1 1 1 0 2 0 1 1 1 1 3 2 1 1 1 1 0 1 0 0 1 0 1 0 0 2 3 1 0 1 3 2 1 1 2 0 1 1 0 2 1 2 4 2 2 0 2 1 0 2 0</counts>
			</dataPoints>
		</scan>
	</xrdMeasurement>
</xrdMeasurements>
