PE UV       SUBTECH     SPECTRUM    ASCII       PEDS        4.00        
   -1
F4-P3HT 1-10 0,5 mgml.Probe.Raw.asc
18/12/18
14:45:59.00
18/12/18
14:45:59.00
Analyst
Thin films - spincoated on 1 inch sq substrates, at 750 RPM for 1 min. Ref Glass
320.000000
1
Lambda 950
950N9080502
PerkinElmer UV WinLab 6.3.2.0749 / 1.61.00 Lambda 900

0
0
3350/servo 860.8/2
0
0
UV/VIS
1
1
1
RBeamAtt,SBeamAtt,uv/vis/nir detector
0
0
0
0
Program
Program
3350/servo 860.8/2
3350/0.2 860.8/0.2
3350/0.2 860.8/0.2
0
1
 
 
 
0
 
860.8
319.2
860.8
Front
100
 
S:100 R:100
 
0
0
0
 
0
 
 
 
0
 
 
0
0
0
0
0
 
 
 
 
0
0


0
0
#HDR
-1
-1
#GR
nm
A
1.0
0.0
2500.000000
-1.000000
2181
8
0.075666
0.006549
#DATA
2500.000000	0.012944
2499.000000	0.012845
2498.000000	0.012919
2497.000000	0.012954
2496.000000	0.012956
2495.000000	0.012887
2494.000000	0.012817
2493.000000	0.012855
2492.000000	0.012790
2491.000000	0.012938
2490.000000	0.012920
2489.000000	0.012825
2488.000000	0.012964
2487.000000	0.012968
2486.000000	0.012839
2485.000000	0.012950
2484.000000	0.012962
2483.000000	0.013005
2482.000000	0.012893
2481.000000	0.012666
2480.000000	0.012970
2479.000000	0.012912
2478.000000	0.012886
2477.000000	0.012896
2476.000000	0.012911
2475.000000	0.013040
2474.000000	0.012941
2473.000000	0.013006
2472.000000	0.012956
2471.000000	0.012998
2470.000000	0.012802
2469.000000	0.013033
2468.000000	0.013017
2467.000000	0.012919
2466.000000	0.013037
2465.000000	0.012988
2464.000000	0.013021
2463.000000	0.012970
2462.000000	0.012943
2461.000000	0.012901
2460.000000	0.012861
2459.000000	0.012939
2458.000000	0.012916
2457.000000	0.012984
2456.000000	0.012884
2455.000000	0.012899
2454.000000	0.012892
2453.000000	0.013076
2452.000000	0.013063
2451.000000	0.012950
2450.000000	0.012989
2449.000000	0.012965
2448.000000	0.012998
2447.000000	0.013090
2446.000000	0.012877
2445.000000	0.012923
2444.000000	0.012974
2443.000000	0.013079
2442.000000	0.013042
2441.000000	0.012931
2440.000000	0.012945
2439.000000	0.012986
2438.000000	0.013047
2437.000000	0.013096
2436.000000	0.013037
2435.000000	0.013053
2434.000000	0.013006
2433.000000	0.012936
2432.000000	0.012973
2431.000000	0.013121
2430.000000	0.013024
2429.000000	0.013017
2428.000000	0.012944
2427.000000	0.012940
2426.000000	0.013038
2425.000000	0.013094
2424.000000	0.012995
2423.000000	0.012987
2422.000000	0.012996
2421.000000	0.013033
2420.000000	0.013055
2419.000000	0.012975
2418.000000	0.013055
2417.000000	0.013042
2416.000000	0.013150
2415.000000	0.013030
2414.000000	0.013107
2413.000000	0.013163
2412.000000	0.013052
2411.000000	0.012992
2410.000000	0.013019
2409.000000	0.013047
2408.000000	0.013136
2407.000000	0.013079
2406.000000	0.013089
2405.000000	0.013221
2404.000000	0.013144
2403.000000	0.013085
2402.000000	0.013130
2401.000000	0.013107
2400.000000	0.013062
2399.000000	0.013069
2398.000000	0.013095
2397.000000	0.013089
2396.000000	0.013119
2395.000000	0.013179
2394.000000	0.013246
2393.000000	0.013257
2392.000000	0.013134
2391.000000	0.013155
2390.000000	0.013157
2389.000000	0.013055
2388.000000	0.013117
2387.000000	0.013137
2386.000000	0.013108
2385.000000	0.013111
2384.000000	0.013117
2383.000000	0.013103
2382.000000	0.013069
2381.000000	0.013068
2380.000000	0.013070
2379.000000	0.013129
2378.000000	0.013198
2377.000000	0.013193
2376.000000	0.013176
2375.000000	0.013114
2374.000000	0.013036
2373.000000	0.013007
2372.000000	0.013070
2371.000000	0.013073
2370.000000	0.013015
2369.000000	0.013096
2368.000000	0.013118
2367.000000	0.013068
2366.000000	0.013032
2365.000000	0.013062
2364.000000	0.013179
2363.000000	0.013218
2362.000000	0.013148
2361.000000	0.013134
2360.000000	0.013207
2359.000000	0.013187
2358.000000	0.013099
2357.000000	0.012979
2356.000000	0.012972
2355.000000	0.013007
2354.000000	0.012997
2353.000000	0.012969
2352.000000	0.013004
2351.000000	0.013070
2350.000000	0.013040
2349.000000	0.012988
2348.000000	0.013064
2347.000000	0.013083
2346.000000	0.013136
2345.000000	0.013067
2344.000000	0.013122
2343.000000	0.013273
2342.000000	0.013136
2341.000000	0.012987
2340.000000	0.012984
2339.000000	0.013064
2338.000000	0.013057
2337.000000	0.013022
2336.000000	0.013075
2335.000000	0.013019
2334.000000	0.012935
2333.000000	0.013017
2332.000000	0.013054
2331.000000	0.013104
2330.000000	0.013137
2329.000000	0.013091
2328.000000	0.012995
2327.000000	0.013002
2326.000000	0.013005
2325.000000	0.012934
2324.000000	0.012993
2323.000000	0.013005
2322.000000	0.012931
2321.000000	0.013060
2320.000000	0.013135
2319.000000	0.013104
2318.000000	0.013118
2317.000000	0.013104
2316.000000	0.013007
2315.000000	0.012965
2314.000000	0.013062
2313.000000	0.013037
2312.000000	0.013040
2311.000000	0.013009
2310.000000	0.013179
2309.000000	0.013043
2308.000000	0.013081
2307.000000	0.013052
2306.000000	0.013007
2305.000000	0.013014
2304.000000	0.013023
2303.000000	0.012999
2302.000000	0.012952
2301.000000	0.013133
2300.000000	0.013123
2299.000000	0.013084
2298.000000	0.013065
2297.000000	0.012925
2296.000000	0.013000
2295.000000	0.012999
2294.000000	0.013011
2293.000000	0.012997
2292.000000	0.013003
2291.000000	0.013087
2290.000000	0.013099
2289.000000	0.013153
2288.000000	0.013047
2287.000000	0.013026
2286.000000	0.012950
2285.000000	0.012991
2284.000000	0.013014
2283.000000	0.013143
2282.000000	0.013139
2281.000000	0.013042
2280.000000	0.012976
2279.000000	0.012940
2278.000000	0.012914
2277.000000	0.013028
2276.000000	0.013193
2275.000000	0.013093
2274.000000	0.013062
2273.000000	0.012902
2272.000000	0.013044
2271.000000	0.012943
2270.000000	0.012961
2269.000000	0.012941
2268.000000	0.013123
2267.000000	0.013084
2266.000000	0.013035
2265.000000	0.013089
2264.000000	0.013084
2263.000000	0.012977
2262.000000	0.013107
2261.000000	0.013091
2260.000000	0.013172
2259.000000	0.012927
2258.000000	0.012922
2257.000000	0.013047
2256.000000	0.013093
2255.000000	0.013094
2254.000000	0.013082
2253.000000	0.013098
2252.000000	0.013058
2251.000000	0.013064
2250.000000	0.013043
2249.000000	0.012997
2248.000000	0.013113
2247.000000	0.013100
2246.000000	0.013032
2245.000000	0.012936
2244.000000	0.012942
2243.000000	0.012901
2242.000000	0.013015
2241.000000	0.013049
2240.000000	0.013093
2239.000000	0.013141
2238.000000	0.012989
2237.000000	0.013001
2236.000000	0.013112
2235.000000	0.012984
2234.000000	0.013018
2233.000000	0.013248
2232.000000	0.013006
2231.000000	0.012997
2230.000000	0.012987
2229.000000	0.012946
2228.000000	0.013086
2227.000000	0.013025
2226.000000	0.013175
2225.000000	0.013012
2224.000000	0.013036
2223.000000	0.013049
2222.000000	0.013004
2221.000000	0.013046
2220.000000	0.013084
2219.000000	0.013053
2218.000000	0.013072
2217.000000	0.012933
2216.000000	0.013033
2215.000000	0.013016
2214.000000	0.012940
2213.000000	0.012962
2212.000000	0.013032
2211.000000	0.013164
2210.000000	0.012953
2209.000000	0.012997
2208.000000	0.013024
2207.000000	0.012981
2206.000000	0.012954
2205.000000	0.013047
2204.000000	0.013075
2203.000000	0.012986
2202.000000	0.012944
2201.000000	0.012919
2200.000000	0.013095
2199.000000	0.012959
2198.000000	0.013072
2197.000000	0.013002
2196.000000	0.013022
2195.000000	0.013024
2194.000000	0.012837
2193.000000	0.012989
2192.000000	0.012929
2191.000000	0.013010
2190.000000	0.013007
2189.000000	0.012967
2188.000000	0.013162
2187.000000	0.013059
2186.000000	0.013066
2185.000000	0.013040
2184.000000	0.012931
2183.000000	0.012934
2182.000000	0.012930
2181.000000	0.013084
2180.000000	0.013079
2179.000000	0.013028
2178.000000	0.013012
2177.000000	0.013083
2176.000000	0.013145
2175.000000	0.013031
2174.000000	0.013050
2173.000000	0.012970
2172.000000	0.013020
2171.000000	0.012929
2170.000000	0.012969
2169.000000	0.012912
2168.000000	0.012942
2167.000000	0.012992
2166.000000	0.012988
2165.000000	0.012941
2164.000000	0.013052
2163.000000	0.012908
2162.000000	0.012918
2161.000000	0.012889
2160.000000	0.012848
2159.000000	0.012975
2158.000000	0.012916
2157.000000	0.012820
2156.000000	0.012846
2155.000000	0.012847
2154.000000	0.012802
2153.000000	0.012935
2152.000000	0.012860
2151.000000	0.012943
2150.000000	0.012894
2149.000000	0.012798
2148.000000	0.012885
2147.000000	0.012808
2146.000000	0.012843
2145.000000	0.012849
2144.000000	0.012826
2143.000000	0.012843
2142.000000	0.012822
2141.000000	0.012824
2140.000000	0.012839
2139.000000	0.012868
2138.000000	0.012838
2137.000000	0.012777
2136.000000	0.012771
2135.000000	0.012826
2134.000000	0.012812
2133.000000	0.012743
2132.000000	0.012747
2131.000000	0.012768
2130.000000	0.012780
2129.000000	0.012772
2128.000000	0.012763
2127.000000	0.012807
2126.000000	0.012798
2125.000000	0.012761
2124.000000	0.012730
2123.000000	0.012747
2122.000000	0.012739
2121.000000	0.012750
2120.000000	0.012759
2119.000000	0.012717
2118.000000	0.012746
2117.000000	0.012723
2116.000000	0.012674
2115.000000	0.012703
2114.000000	0.012793
2113.000000	0.012714
2112.000000	0.012646
2111.000000	0.012639
2110.000000	0.012709
2109.000000	0.012712
2108.000000	0.012609
2107.000000	0.012652
2106.000000	0.012708
2105.000000	0.012690
2104.000000	0.012635
2103.000000	0.012575
2102.000000	0.012599
2101.000000	0.012592
2100.000000	0.012561
2099.000000	0.012626
2098.000000	0.012605
2097.000000	0.012566
2096.000000	0.012542
2095.000000	0.012550
2094.000000	0.012553
2093.000000	0.012553
2092.000000	0.012584
2091.000000	0.012574
2090.000000	0.012582
2089.000000	0.012603
2088.000000	0.012612
2087.000000	0.012553
2086.000000	0.012469
2085.000000	0.012474
2084.000000	0.012475
2083.000000	0.012470
2082.000000	0.012520
2081.000000	0.012544
2080.000000	0.012584
2079.000000	0.012558
2078.000000	0.012594
2077.000000	0.012605
2076.000000	0.012508
2075.000000	0.012431
2074.000000	0.012446
2073.000000	0.012444
2072.000000	0.012343
2071.000000	0.012365
2070.000000	0.012449
2069.000000	0.012404
2068.000000	0.012390
2067.000000	0.012394
2066.000000	0.012421
2065.000000	0.012373
2064.000000	0.012424
2063.000000	0.012418
2062.000000	0.012383
2061.000000	0.012411
2060.000000	0.012424
2059.000000	0.012377
2058.000000	0.012305
2057.000000	0.012292
2056.000000	0.012364
2055.000000	0.012347
2054.000000	0.012256
2053.000000	0.012299
2052.000000	0.012265
2051.000000	0.012229
2050.000000	0.012263
2049.000000	0.012374
2048.000000	0.012326
2047.000000	0.012300
2046.000000	0.012348
2045.000000	0.012364
2044.000000	0.012343
2043.000000	0.012277
2042.000000	0.012388
2041.000000	0.012414
2040.000000	0.012273
2039.000000	0.012229
2038.000000	0.012240
2037.000000	0.012269
2036.000000	0.012178
2035.000000	0.012182
2034.000000	0.012182
2033.000000	0.012108
2032.000000	0.012139
2031.000000	0.012103
2030.000000	0.012024
2029.000000	0.012025
2028.000000	0.012070
2027.000000	0.012106
2026.000000	0.012144
2025.000000	0.012150
2024.000000	0.012094
2023.000000	0.012065
2022.000000	0.012060
2021.000000	0.012011
2020.000000	0.011973
2019.000000	0.012051
2018.000000	0.012054
2017.000000	0.012079
2016.000000	0.011949
2015.000000	0.012068
2014.000000	0.012067
2013.000000	0.012047
2012.000000	0.011958
2011.000000	0.011923
2010.000000	0.011983
2009.000000	0.011935
2008.000000	0.011935
2007.000000	0.011878
2006.000000	0.011919
2005.000000	0.011859
2004.000000	0.011833
2003.000000	0.011874
2002.000000	0.011959
2001.000000	0.011943
2000.000000	0.011859
1999.000000	0.011875
1998.000000	0.011993
1997.000000	0.011866
1996.000000	0.011798
1995.000000	0.011765
1994.000000	0.011697
1993.000000	0.011743
1992.000000	0.011839
1991.000000	0.011858
1990.000000	0.011710
1989.000000	0.011850
1988.000000	0.011641
1987.000000	0.011789
1986.000000	0.011768
1985.000000	0.011645
1984.000000	0.011684
1983.000000	0.011749
1982.000000	0.011803
1981.000000	0.011652
1980.000000	0.011657
1979.000000	0.011790
1978.000000	0.011559
1977.000000	0.011527
1976.000000	0.011438
1975.000000	0.011617
1974.000000	0.011553
1973.000000	0.011618
1972.000000	0.011531
1971.000000	0.011659
1970.000000	0.011579
1969.000000	0.011472
1968.000000	0.011452
1967.000000	0.011500
1966.000000	0.011551
1965.000000	0.011443
1964.000000	0.011412
1963.000000	0.011462
1962.000000	0.011552
1961.000000	0.011423
1960.000000	0.011452
1959.000000	0.011401
1958.000000	0.011401
1957.000000	0.011447
1956.000000	0.011371
1955.000000	0.011311
1954.000000	0.011310
1953.000000	0.011291
1952.000000	0.011275
1951.000000	0.011224
1950.000000	0.011244
1949.000000	0.011290
1948.000000	0.011159
1947.000000	0.011251
1946.000000	0.010951
1945.000000	0.011283
1944.000000	0.011083
1943.000000	0.010989
1942.000000	0.010966
1941.000000	0.010870
1940.000000	0.011099
1939.000000	0.010960
1938.000000	0.010971
1937.000000	0.010953
1936.000000	0.010968
1935.000000	0.010984
1934.000000	0.010824
1933.000000	0.010957
1932.000000	0.010728
1931.000000	0.010940
1930.000000	0.010709
1929.000000	0.010670
1928.000000	0.010481
1927.000000	0.010463
1926.000000	0.010448
1925.000000	0.010546
1924.000000	0.010623
1923.000000	0.010542
1922.000000	0.010346
1921.000000	0.010471
1920.000000	0.010497
1919.000000	0.010309
1918.000000	0.010341
1917.000000	0.010402
1916.000000	0.010453
1915.000000	0.010561
1914.000000	0.010260
1913.000000	0.010468
1912.000000	0.010263
1911.000000	0.010521
1910.000000	0.010680
1909.000000	0.010736
1908.000000	0.010480
1907.000000	0.010465
1906.000000	0.010522
1905.000000	0.010722
1904.000000	0.010754
1903.000000	0.010713
1902.000000	0.010816
1901.000000	0.010739
1900.000000	0.010596
1899.000000	0.010543
1898.000000	0.010475
1897.000000	0.010368
1896.000000	0.010485
1895.000000	0.010454
1894.000000	0.010294
1893.000000	0.010365
1892.000000	0.010190
1891.000000	0.010192
1890.000000	0.010119
1889.000000	0.010278
1888.000000	0.010223
1887.000000	0.010201
1886.000000	0.010237
1885.000000	0.010156
1884.000000	0.010232
1883.000000	0.010225
1882.000000	0.010168
1881.000000	0.010195
1880.000000	0.010125
1879.000000	0.010056
1878.000000	0.010106
1877.000000	0.010075
1876.000000	0.009866
1875.000000	0.009820
1874.000000	0.009833
1873.000000	0.009909
1872.000000	0.009900
1871.000000	0.009938
1870.000000	0.010017
1869.000000	0.009967
1868.000000	0.010004
1867.000000	0.010159
1866.000000	0.010100
1865.000000	0.010224
1864.000000	0.010278
1863.000000	0.010078
1862.000000	0.009966
1861.000000	0.009993
1860.000000	0.010078
1859.000000	0.010150
1858.000000	0.010170
1857.000000	0.010201
1856.000000	0.010202
1855.000000	0.010154
1854.000000	0.010158
1853.000000	0.010301
1852.000000	0.010291
1851.000000	0.010203
1850.000000	0.010149
1849.000000	0.010029
1848.000000	0.009969
1847.000000	0.010026
1846.000000	0.010209
1845.000000	0.010401
1844.000000	0.009992
1843.000000	0.009725
1842.000000	0.009557
1841.000000	0.009891
1840.000000	0.009907
1839.000000	0.009729
1838.000000	0.009673
1837.000000	0.009627
1836.000000	0.009554
1835.000000	0.009339
1834.000000	0.009349
1833.000000	0.009683
1832.000000	0.009896
1831.000000	0.009920
1830.000000	0.010037
1829.000000	0.010152
1828.000000	0.010024
1827.000000	0.009870
1826.000000	0.009865
1825.000000	0.009991
1824.000000	0.009909
1823.000000	0.009718
1822.000000	0.009444
1821.000000	0.009352
1820.000000	0.009480
1819.000000	0.009477
1818.000000	0.009621
1817.000000	0.009699
1816.000000	0.009644
1815.000000	0.009681
1814.000000	0.009752
1813.000000	0.009743
1812.000000	0.009733
1811.000000	0.009683
1810.000000	0.009744
1809.000000	0.009757
1808.000000	0.009627
1807.000000	0.009654
1806.000000	0.009739
1805.000000	0.009648
1804.000000	0.009556
1803.000000	0.009546
1802.000000	0.009503
1801.000000	0.009605
1800.000000	0.009716
1799.000000	0.009650
1798.000000	0.009561
1797.000000	0.009407
1796.000000	0.009429
1795.000000	0.009517
1794.000000	0.009523
1793.000000	0.009499
1792.000000	0.009510
1791.000000	0.009484
1790.000000	0.009487
1789.000000	0.009492
1788.000000	0.009440
1787.000000	0.009373
1786.000000	0.009336
1785.000000	0.009430
1784.000000	0.009358
1783.000000	0.009283
1782.000000	0.009253
1781.000000	0.009191
1780.000000	0.009388
1779.000000	0.009509
1778.000000	0.009138
1777.000000	0.009107
1776.000000	0.009289
1775.000000	0.009267
1774.000000	0.009318
1773.000000	0.009273
1772.000000	0.009239
1771.000000	0.009235
1770.000000	0.009256
1769.000000	0.009281
1768.000000	0.009228
1767.000000	0.009136
1766.000000	0.009096
1765.000000	0.009109
1764.000000	0.009041
1763.000000	0.009067
1762.000000	0.009079
1761.000000	0.009070
1760.000000	0.009038
1759.000000	0.008994
1758.000000	0.008962
1757.000000	0.008937
1756.000000	0.008962
1755.000000	0.008973
1754.000000	0.008998
1753.000000	0.008979
1752.000000	0.008979
1751.000000	0.008943
1750.000000	0.008894
1749.000000	0.008872
1748.000000	0.008848
1747.000000	0.008895
1746.000000	0.008821
1745.000000	0.008816
1744.000000	0.008874
1743.000000	0.008912
1742.000000	0.008795
1741.000000	0.008796
1740.000000	0.008845
1739.000000	0.008838
1738.000000	0.008808
1737.000000	0.008714
1736.000000	0.008703
1735.000000	0.008673
1734.000000	0.008847
1733.000000	0.008772
1732.000000	0.008699
1731.000000	0.008671
1730.000000	0.008762
1729.000000	0.008718
1728.000000	0.008678
1727.000000	0.008644
1726.000000	0.008637
1725.000000	0.008673
1724.000000	0.008645
1723.000000	0.008663
1722.000000	0.008589
1721.000000	0.008626
1720.000000	0.008651
1719.000000	0.008697
1718.000000	0.008549
1717.000000	0.008568
1716.000000	0.008535
1715.000000	0.008479
1714.000000	0.008462
1713.000000	0.008511
1712.000000	0.008575
1711.000000	0.008521
1710.000000	0.008373
1709.000000	0.008461
1708.000000	0.008553
1707.000000	0.008600
1706.000000	0.008518
1705.000000	0.008564
1704.000000	0.008542
1703.000000	0.008562
1702.000000	0.008419
1701.000000	0.008397
1700.000000	0.008420
1699.000000	0.008392
1698.000000	0.008450
1697.000000	0.008333
1696.000000	0.008205
1695.000000	0.008246
1694.000000	0.008244
1693.000000	0.008395
1692.000000	0.008370
1691.000000	0.008378
1690.000000	0.008328
1689.000000	0.008265
1688.000000	0.008344
1687.000000	0.008458
1686.000000	0.008287
1685.000000	0.008223
1684.000000	0.008230
1683.000000	0.008189
1682.000000	0.008164
1681.000000	0.008185
1680.000000	0.008232
1679.000000	0.008159
1678.000000	0.008176
1677.000000	0.008209
1676.000000	0.008164
1675.000000	0.008302
1674.000000	0.008262
1673.000000	0.008264
1672.000000	0.008095
1671.000000	0.008070
1670.000000	0.008215
1669.000000	0.008160
1668.000000	0.008178
1667.000000	0.008112
1666.000000	0.008147
1665.000000	0.008054
1664.000000	0.008113
1663.000000	0.007990
1662.000000	0.008074
1661.000000	0.008131
1660.000000	0.008185
1659.000000	0.008027
1658.000000	0.008029
1657.000000	0.007983
1656.000000	0.008048
1655.000000	0.007959
1654.000000	0.007930
1653.000000	0.007957
1652.000000	0.007993
1651.000000	0.007914
1650.000000	0.008037
1649.000000	0.008114
1648.000000	0.007886
1647.000000	0.007935
1646.000000	0.007978
1645.000000	0.007848
1644.000000	0.008014
1643.000000	0.007933
1642.000000	0.007987
1641.000000	0.007918
1640.000000	0.007931
1639.000000	0.007897
1638.000000	0.007951
1637.000000	0.007974
1636.000000	0.007953
1635.000000	0.007928
1634.000000	0.007925
1633.000000	0.007830
1632.000000	0.007818
1631.000000	0.007884
1630.000000	0.007941
1629.000000	0.007858
1628.000000	0.007828
1627.000000	0.007818
1626.000000	0.007823
1625.000000	0.007859
1624.000000	0.007831
1623.000000	0.007794
1622.000000	0.007856
1621.000000	0.007832
1620.000000	0.007744
1619.000000	0.007859
1618.000000	0.007868
1617.000000	0.007780
1616.000000	0.007766
1615.000000	0.007846
1614.000000	0.007742
1613.000000	0.007731
1612.000000	0.007694
1611.000000	0.007815
1610.000000	0.007828
1609.000000	0.007800
1608.000000	0.007774
1607.000000	0.007687
1606.000000	0.007784
1605.000000	0.007765
1604.000000	0.007764
1603.000000	0.007762
1602.000000	0.007746
1601.000000	0.007721
1600.000000	0.007646
1599.000000	0.007600
1598.000000	0.007651
1597.000000	0.007625
1596.000000	0.007612
1595.000000	0.007687
1594.000000	0.007604
1593.000000	0.007609
1592.000000	0.007678
1591.000000	0.007603
1590.000000	0.007524
1589.000000	0.007518
1588.000000	0.007596
1587.000000	0.007573
1586.000000	0.007625
1585.000000	0.007571
1584.000000	0.007560
1583.000000	0.007528
1582.000000	0.007556
1581.000000	0.007742
1580.000000	0.008087
1579.000000	0.008043
1578.000000	0.007938
1577.000000	0.007860
1576.000000	0.007818
1575.000000	0.007796
1574.000000	0.007849
1573.000000	0.007752
1572.000000	0.007762
1571.000000	0.007787
1570.000000	0.007785
1569.000000	0.007799
1568.000000	0.007797
1567.000000	0.007752
1566.000000	0.007712
1565.000000	0.007801
1564.000000	0.007843
1563.000000	0.007831
1562.000000	0.007769
1561.000000	0.007674
1560.000000	0.007694
1559.000000	0.007752
1558.000000	0.007684
1557.000000	0.007716
1556.000000	0.007729
1555.000000	0.007686
1554.000000	0.007683
1553.000000	0.007672
1552.000000	0.007627
1551.000000	0.007705
1550.000000	0.007738
1549.000000	0.007676
1548.000000	0.007634
1547.000000	0.007668
1546.000000	0.007738
1545.000000	0.007771
1544.000000	0.007594
1543.000000	0.007545
1542.000000	0.007652
1541.000000	0.007716
1540.000000	0.007663
1539.000000	0.007589
1538.000000	0.007644
1537.000000	0.007668
1536.000000	0.007600
1535.000000	0.007541
1534.000000	0.007566
1533.000000	0.007665
1532.000000	0.007624
1531.000000	0.007541
1530.000000	0.007530
1529.000000	0.007627
1528.000000	0.007746
1527.000000	0.007602
1526.000000	0.007533
1525.000000	0.007602
1524.000000	0.007568
1523.000000	0.007521
1522.000000	0.007533
1521.000000	0.007442
1520.000000	0.007443
1519.000000	0.007457
1518.000000	0.007474
1517.000000	0.007519
1516.000000	0.007527
1515.000000	0.007582
1514.000000	0.007622
1513.000000	0.007586
1512.000000	0.007540
1511.000000	0.007483
1510.000000	0.007447
1509.000000	0.007415
1508.000000	0.007366
1507.000000	0.007431
1506.000000	0.007525
1505.000000	0.007412
1504.000000	0.007449
1503.000000	0.007403
1502.000000	0.007320
1501.000000	0.007408
1500.000000	0.007469
1499.000000	0.007439
1498.000000	0.007486
1497.000000	0.007499
1496.000000	0.007344
1495.000000	0.007359
1494.000000	0.007473
1493.000000	0.007422
1492.000000	0.007431
1491.000000	0.007448
1490.000000	0.007451
1489.000000	0.007503
1488.000000	0.007508
1487.000000	0.007372
1486.000000	0.007282
1485.000000	0.007355
1484.000000	0.007400
1483.000000	0.007424
1482.000000	0.007414
1481.000000	0.007378
1480.000000	0.007307
1479.000000	0.007376
1478.000000	0.007335
1477.000000	0.007249
1476.000000	0.007233
1475.000000	0.007187
1474.000000	0.007289
1473.000000	0.007354
1472.000000	0.007285
1471.000000	0.007307
1470.000000	0.007351
1469.000000	0.007369
1468.000000	0.007290
1467.000000	0.007290
1466.000000	0.007268
1465.000000	0.007278
1464.000000	0.007217
1463.000000	0.007261
1462.000000	0.007228
1461.000000	0.007243
1460.000000	0.007233
1459.000000	0.007253
1458.000000	0.007195
1457.000000	0.007366
1456.000000	0.007248
1455.000000	0.007305
1454.000000	0.007226
1453.000000	0.007246
1452.000000	0.007292
1451.000000	0.007333
1450.000000	0.007353
1449.000000	0.007307
1448.000000	0.007263
1447.000000	0.007151
1446.000000	0.007239
1445.000000	0.007256
1444.000000	0.007191
1443.000000	0.007155
1442.000000	0.007180
1441.000000	0.007133
1440.000000	0.007234
1439.000000	0.007215
1438.000000	0.007147
1437.000000	0.007184
1436.000000	0.007222
1435.000000	0.007308
1434.000000	0.007181
1433.000000	0.007224
1432.000000	0.007078
1431.000000	0.007207
1430.000000	0.007149
1429.000000	0.007243
1428.000000	0.007115
1427.000000	0.007108
1426.000000	0.007171
1425.000000	0.007037
1424.000000	0.007117
1423.000000	0.007045
1422.000000	0.007177
1421.000000	0.007182
1420.000000	0.007136
1419.000000	0.007208
1418.000000	0.007043
1417.000000	0.007422
1416.000000	0.007024
1415.000000	0.007561
1414.000000	0.007128
1413.000000	0.007196
1412.000000	0.007014
1411.000000	0.006982
1410.000000	0.007189
1409.000000	0.007239
1408.000000	0.007265
1407.000000	0.006968
1406.000000	0.006988
1405.000000	0.007071
1404.000000	0.007036
1403.000000	0.007214
1402.000000	0.007124
1401.000000	0.006950
1400.000000	0.006984
1399.000000	0.007306
1398.000000	0.006868
1397.000000	0.006958
1396.000000	0.007002
1395.000000	0.007014
1394.000000	0.007233
1393.000000	0.007361
1392.000000	0.006844
1391.000000	0.007240
1390.000000	0.007089
1389.000000	0.006888
1388.000000	0.007075
1387.000000	0.007300
1386.000000	0.006968
1385.000000	0.007117
1384.000000	0.007076
1383.000000	0.006983
1382.000000	0.007097
1381.000000	0.006989
1380.000000	0.007159
1379.000000	0.006936
1378.000000	0.007028
1377.000000	0.007211
1376.000000	0.007031
1375.000000	0.007098
1374.000000	0.006994
1373.000000	0.006883
1372.000000	0.007041
1371.000000	0.007422
1370.000000	0.007114
1369.000000	0.006856
1368.000000	0.006717
1367.000000	0.007083
1366.000000	0.007021
1365.000000	0.006944
1364.000000	0.006861
1363.000000	0.006802
1362.000000	0.006965
1361.000000	0.006549
1360.000000	0.007098
1359.000000	0.007049
1358.000000	0.006943
1357.000000	0.007300
1356.000000	0.007280
1355.000000	0.007154
1354.000000	0.007274
1353.000000	0.007017
1352.000000	0.006898
1351.000000	0.006969
1350.000000	0.007030
1349.000000	0.007001
1348.000000	0.007092
1347.000000	0.007059
1346.000000	0.007049
1345.000000	0.006996
1344.000000	0.007005
1343.000000	0.007071
1342.000000	0.006934
1341.000000	0.006957
1340.000000	0.007035
1339.000000	0.006936
1338.000000	0.006987
1337.000000	0.006939
1336.000000	0.006954
1335.000000	0.006982
1334.000000	0.006980
1333.000000	0.007013
1332.000000	0.007094
1331.000000	0.007005
1330.000000	0.006957
1329.000000	0.007092
1328.000000	0.007020
1327.000000	0.006930
1326.000000	0.006943
1325.000000	0.007115
1324.000000	0.007079
1323.000000	0.007086
1322.000000	0.007045
1321.000000	0.007017
1320.000000	0.006998
1319.000000	0.007064
1318.000000	0.007024
1317.000000	0.007039
1316.000000	0.007041
1315.000000	0.007069
1314.000000	0.007138
1313.000000	0.007208
1312.000000	0.007080
1311.000000	0.006998
1310.000000	0.007017
1309.000000	0.007072
1308.000000	0.006989
1307.000000	0.007022
1306.000000	0.007038
1305.000000	0.007049
1304.000000	0.007017
1303.000000	0.006952
1302.000000	0.007016
1301.000000	0.007046
1300.000000	0.006985
1299.000000	0.007074
1298.000000	0.007050
1297.000000	0.007091
1296.000000	0.007115
1295.000000	0.007041
1294.000000	0.006982
1293.000000	0.007101
1292.000000	0.007107
1291.000000	0.007101
1290.000000	0.007042
1289.000000	0.006985
1288.000000	0.007048
1287.000000	0.007051
1286.000000	0.007015
1285.000000	0.006936
1284.000000	0.006933
1283.000000	0.006964
1282.000000	0.006972
1281.000000	0.007062
1280.000000	0.007089
1279.000000	0.007070
1278.000000	0.006999
1277.000000	0.007006
1276.000000	0.007046
1275.000000	0.007021
1274.000000	0.007015
1273.000000	0.007004
1272.000000	0.007081
1271.000000	0.007106
1270.000000	0.007003
1269.000000	0.006995
1268.000000	0.007010
1267.000000	0.006989
1266.000000	0.007010
1265.000000	0.007017
1264.000000	0.007043
1263.000000	0.007028
1262.000000	0.007023
1261.000000	0.007015
1260.000000	0.006993
1259.000000	0.007011
1258.000000	0.007035
1257.000000	0.007050
1256.000000	0.007030
1255.000000	0.007000
1254.000000	0.007005
1253.000000	0.006980
1252.000000	0.006961
1251.000000	0.007021
1250.000000	0.007031
1249.000000	0.007007
1248.000000	0.006961
1247.000000	0.007097
1246.000000	0.007095
1245.000000	0.007005
1244.000000	0.006968
1243.000000	0.007078
1242.000000	0.007150
1241.000000	0.007078
1240.000000	0.006980
1239.000000	0.006949
1238.000000	0.006982
1237.000000	0.006982
1236.000000	0.006892
1235.000000	0.006915
1234.000000	0.007013
1233.000000	0.006998
1232.000000	0.007008
1231.000000	0.007025
1230.000000	0.007075
1229.000000	0.007111
1228.000000	0.007056
1227.000000	0.007048
1226.000000	0.007037
1225.000000	0.007085
1224.000000	0.007077
1223.000000	0.007078
1222.000000	0.006936
1221.000000	0.006988
1220.000000	0.007075
1219.000000	0.007069
1218.000000	0.007090
1217.000000	0.007034
1216.000000	0.007022
1215.000000	0.007058
1214.000000	0.007077
1213.000000	0.007124
1212.000000	0.007117
1211.000000	0.007041
1210.000000	0.007105
1209.000000	0.007182
1208.000000	0.007182
1207.000000	0.007146
1206.000000	0.007134
1205.000000	0.007169
1204.000000	0.007234
1203.000000	0.007197
1202.000000	0.007101
1201.000000	0.007155
1200.000000	0.007190
1199.000000	0.007227
1198.000000	0.007136
1197.000000	0.007109
1196.000000	0.007171
1195.000000	0.007193
1194.000000	0.007088
1193.000000	0.007127
1192.000000	0.007101
1191.000000	0.007214
1190.000000	0.007195
1189.000000	0.007127
1188.000000	0.007218
1187.000000	0.007306
1186.000000	0.007134
1185.000000	0.007132
1184.000000	0.007183
1183.000000	0.007132
1182.000000	0.007100
1181.000000	0.007143
1180.000000	0.007166
1179.000000	0.007059
1178.000000	0.007105
1177.000000	0.007093
1176.000000	0.007176
1175.000000	0.007233
1174.000000	0.007277
1173.000000	0.007225
1172.000000	0.007248
1171.000000	0.007252
1170.000000	0.007249
1169.000000	0.007329
1168.000000	0.007298
1167.000000	0.007310
1166.000000	0.007305
1165.000000	0.007291
1164.000000	0.007291
1163.000000	0.007321
1162.000000	0.007287
1161.000000	0.007313
1160.000000	0.007318
1159.000000	0.007341
1158.000000	0.007409
1157.000000	0.007363
1156.000000	0.007268
1155.000000	0.007224
1154.000000	0.007359
1153.000000	0.007368
1152.000000	0.007260
1151.000000	0.007351
1150.000000	0.007306
1149.000000	0.007403
1148.000000	0.007490
1147.000000	0.007358
1146.000000	0.007323
1145.000000	0.007406
1144.000000	0.007347
1143.000000	0.007430
1142.000000	0.007463
1141.000000	0.007510
1140.000000	0.007425
1139.000000	0.007501
1138.000000	0.007522
1137.000000	0.007551
1136.000000	0.007427
1135.000000	0.007488
1134.000000	0.007565
1133.000000	0.007574
1132.000000	0.007488
1131.000000	0.007616
1130.000000	0.007521
1129.000000	0.007682
1128.000000	0.007734
1127.000000	0.007571
1126.000000	0.007639
1125.000000	0.007670
1124.000000	0.007721
1123.000000	0.007718
1122.000000	0.007703
1121.000000	0.007568
1120.000000	0.007616
1119.000000	0.007683
1118.000000	0.007739
1117.000000	0.007652
1116.000000	0.007764
1115.000000	0.007776
1114.000000	0.007807
1113.000000	0.007817
1112.000000	0.007770
1111.000000	0.007837
1110.000000	0.007851
1109.000000	0.007871
1108.000000	0.007881
1107.000000	0.008088
1106.000000	0.008049
1105.000000	0.007899
1104.000000	0.008035
1103.000000	0.008133
1102.000000	0.008230
1101.000000	0.008134
1100.000000	0.008154
1099.000000	0.008229
1098.000000	0.008042
1097.000000	0.008166
1096.000000	0.008214
1095.000000	0.008248
1094.000000	0.008268
1093.000000	0.008280
1092.000000	0.008348
1091.000000	0.008336
1090.000000	0.008579
1089.000000	0.008366
1088.000000	0.008468
1087.000000	0.008486
1086.000000	0.008517
1085.000000	0.008522
1084.000000	0.008586
1083.000000	0.008600
1082.000000	0.008550
1081.000000	0.008638
1080.000000	0.008573
1079.000000	0.008630
1078.000000	0.008672
1077.000000	0.008731
1076.000000	0.008757
1075.000000	0.008863
1074.000000	0.008895
1073.000000	0.009009
1072.000000	0.009033
1071.000000	0.008953
1070.000000	0.009024
1069.000000	0.009121
1068.000000	0.009102
1067.000000	0.009149
1066.000000	0.009159
1065.000000	0.009167
1064.000000	0.009265
1063.000000	0.009304
1062.000000	0.009332
1061.000000	0.009398
1060.000000	0.009405
1059.000000	0.009353
1058.000000	0.009458
1057.000000	0.009625
1056.000000	0.009623
1055.000000	0.009626
1054.000000	0.009728
1053.000000	0.009730
1052.000000	0.009817
1051.000000	0.009791
1050.000000	0.009801
1049.000000	0.009990
1048.000000	0.010018
1047.000000	0.010051
1046.000000	0.010152
1045.000000	0.010153
1044.000000	0.010210
1043.000000	0.010291
1042.000000	0.010346
1041.000000	0.010391
1040.000000	0.010428
1039.000000	0.010473
1038.000000	0.010408
1037.000000	0.010545
1036.000000	0.010605
1035.000000	0.010573
1034.000000	0.010715
1033.000000	0.010758
1032.000000	0.010764
1031.000000	0.010854
1030.000000	0.010921
1029.000000	0.010944
1028.000000	0.011007
1027.000000	0.011068
1026.000000	0.011106
1025.000000	0.011162
1024.000000	0.011257
1023.000000	0.011170
1022.000000	0.011285
1021.000000	0.011407
1020.000000	0.011452
1019.000000	0.011445
1018.000000	0.011565
1017.000000	0.011631
1016.000000	0.011525
1015.000000	0.011650
1014.000000	0.011745
1013.000000	0.011713
1012.000000	0.011888
1011.000000	0.011911
1010.000000	0.011837
1009.000000	0.011941
1008.000000	0.012035
1007.000000	0.012064
1006.000000	0.012003
1005.000000	0.012148
1004.000000	0.012169
1003.000000	0.012166
1002.000000	0.012325
1001.000000	0.012384
1000.000000	0.012460
999.000000	0.012424
998.000000	0.012383
997.000000	0.012483
996.000000	0.012548
995.000000	0.012586
994.000000	0.012601
993.000000	0.012597
992.000000	0.012688
991.000000	0.012737
990.000000	0.012842
989.000000	0.012895
988.000000	0.012851
987.000000	0.012913
986.000000	0.012979
985.000000	0.012927
984.000000	0.013009
983.000000	0.013168
982.000000	0.013195
981.000000	0.013122
980.000000	0.013139
979.000000	0.013125
978.000000	0.013174
977.000000	0.013268
976.000000	0.013246
975.000000	0.013313
974.000000	0.013423
973.000000	0.013462
972.000000	0.013476
971.000000	0.013495
970.000000	0.013497
969.000000	0.013540
968.000000	0.013635
967.000000	0.013704
966.000000	0.013749
965.000000	0.013690
964.000000	0.013644
963.000000	0.013664
962.000000	0.013644
961.000000	0.013714
960.000000	0.013842
959.000000	0.013827
958.000000	0.013749
957.000000	0.013864
956.000000	0.014008
955.000000	0.013996
954.000000	0.013830
953.000000	0.013860
952.000000	0.013901
951.000000	0.014077
950.000000	0.014099
949.000000	0.013968
948.000000	0.014090
947.000000	0.014254
946.000000	0.014180
945.000000	0.014189
944.000000	0.014287
943.000000	0.014306
942.000000	0.014215
941.000000	0.014238
940.000000	0.014333
939.000000	0.014316
938.000000	0.014268
937.000000	0.014475
936.000000	0.014561
935.000000	0.014584
934.000000	0.014492
933.000000	0.014496
932.000000	0.014660
931.000000	0.014734
930.000000	0.014671
929.000000	0.014752
928.000000	0.014777
927.000000	0.014757
926.000000	0.014875
925.000000	0.014843
924.000000	0.014829
923.000000	0.014923
922.000000	0.015027
921.000000	0.014959
920.000000	0.015013
919.000000	0.015125
918.000000	0.015191
917.000000	0.015189
916.000000	0.015231
915.000000	0.015323
914.000000	0.015371
913.000000	0.015470
912.000000	0.015316
911.000000	0.015411
910.000000	0.015449
909.000000	0.015333
908.000000	0.015552
907.000000	0.015671
906.000000	0.015570
905.000000	0.015677
904.000000	0.015753
903.000000	0.015864
902.000000	0.015902
901.000000	0.015907
900.000000	0.015780
899.000000	0.016169
898.000000	0.016058
897.000000	0.016056
896.000000	0.016229
895.000000	0.016355
894.000000	0.016481
893.000000	0.016466
892.000000	0.016626
891.000000	0.016730
890.000000	0.016732
889.000000	0.016806
888.000000	0.016994
887.000000	0.017093
886.000000	0.017169
885.000000	0.017383
884.000000	0.017360
883.000000	0.017541
882.000000	0.017585
881.000000	0.017651
880.000000	0.017662
879.000000	0.017949
878.000000	0.017881
877.000000	0.017987
876.000000	0.017990
875.000000	0.017881
874.000000	0.018215
873.000000	0.018042
872.000000	0.018074
871.000000	0.018122
870.000000	0.018083
869.000000	0.018054
868.000000	0.018178
867.000000	0.018151
866.000000	0.018217
865.000000	0.018110
864.000000	0.018361
863.000000	0.018366
862.000000	0.018379
861.000000	0.018389
860.000000	0.018579
859.000000	0.019997
858.000000	0.020184
857.000000	0.020465
856.000000	0.020227
855.000000	0.020097
854.000000	0.020551
853.000000	0.020788
852.000000	0.020421
851.000000	0.020584
850.000000	0.019960
849.000000	0.019830
848.000000	0.019919
847.000000	0.019635
846.000000	0.019824
845.000000	0.019791
844.000000	0.019125
843.000000	0.019180
842.000000	0.019093
841.000000	0.019308
840.000000	0.019121
839.000000	0.019154
838.000000	0.019074
837.000000	0.018894
836.000000	0.018882
835.000000	0.018638
834.000000	0.018347
833.000000	0.018603
832.000000	0.018313
831.000000	0.018574
830.000000	0.018380
829.000000	0.018285
828.000000	0.018093
827.000000	0.018366
826.000000	0.018148
825.000000	0.018066
824.000000	0.018230
823.000000	0.018069
822.000000	0.018079
821.000000	0.018098
820.000000	0.018056
819.000000	0.018113
818.000000	0.018128
817.000000	0.018150
816.000000	0.017885
815.000000	0.018244
814.000000	0.018232
813.000000	0.018418
812.000000	0.018138
811.000000	0.018127
810.000000	0.018411
809.000000	0.018315
808.000000	0.018639
807.000000	0.018474
806.000000	0.018587
805.000000	0.018681
804.000000	0.018725
803.000000	0.018868
802.000000	0.018773
801.000000	0.019006
800.000000	0.018948
799.000000	0.019129
798.000000	0.019164
797.000000	0.019286
796.000000	0.019384
795.000000	0.019402
794.000000	0.019487
793.000000	0.019645
792.000000	0.019740
791.000000	0.019795
790.000000	0.019939
789.000000	0.019734
788.000000	0.019931
787.000000	0.020130
786.000000	0.020206
785.000000	0.020170
784.000000	0.020298
783.000000	0.020317
782.000000	0.020572
781.000000	0.020726
780.000000	0.020815
779.000000	0.020894
778.000000	0.021072
777.000000	0.021171
776.000000	0.021286
775.000000	0.021580
774.000000	0.021776
773.000000	0.021900
772.000000	0.021994
771.000000	0.022005
770.000000	0.022148
769.000000	0.022174
768.000000	0.022158
767.000000	0.022290
766.000000	0.022249
765.000000	0.022201
764.000000	0.022188
763.000000	0.022104
762.000000	0.022058
761.000000	0.022135
760.000000	0.022010
759.000000	0.022048
758.000000	0.022203
757.000000	0.022183
756.000000	0.022228
755.000000	0.022422
754.000000	0.022307
753.000000	0.022254
752.000000	0.022235
751.000000	0.022144
750.000000	0.022219
749.000000	0.022193
748.000000	0.022015
747.000000	0.021963
746.000000	0.021820
745.000000	0.021706
744.000000	0.021663
743.000000	0.021553
742.000000	0.021428
741.000000	0.021334
740.000000	0.021269
739.000000	0.021244
738.000000	0.021244
737.000000	0.021258
736.000000	0.021212
735.000000	0.021156
734.000000	0.021084
733.000000	0.020998
732.000000	0.020991
731.000000	0.021042
730.000000	0.021016
729.000000	0.020912
728.000000	0.020903
727.000000	0.020934
726.000000	0.020880
725.000000	0.020892
724.000000	0.020916
723.000000	0.020922
722.000000	0.020892
721.000000	0.020904
720.000000	0.020969
719.000000	0.021024
718.000000	0.021005
717.000000	0.021023
716.000000	0.021091
715.000000	0.021147
714.000000	0.021145
713.000000	0.021120
712.000000	0.021160
711.000000	0.021231
710.000000	0.021285
709.000000	0.021359
708.000000	0.021393
707.000000	0.021424
706.000000	0.021438
705.000000	0.021409
704.000000	0.021522
703.000000	0.021625
702.000000	0.021636
701.000000	0.021684
700.000000	0.021650
699.000000	0.021580
698.000000	0.021679
697.000000	0.021781
696.000000	0.021802
695.000000	0.021857
694.000000	0.021929
693.000000	0.021996
692.000000	0.022050
691.000000	0.022124
690.000000	0.022084
689.000000	0.022084
688.000000	0.022156
687.000000	0.022213
686.000000	0.022229
685.000000	0.022238
684.000000	0.022285
683.000000	0.022327
682.000000	0.022391
681.000000	0.022397
680.000000	0.022414
679.000000	0.022498
678.000000	0.022566
677.000000	0.022597
676.000000	0.022615
675.000000	0.022731
674.000000	0.022750
673.000000	0.022762
672.000000	0.022865
671.000000	0.022908
670.000000	0.022979
669.000000	0.023078
668.000000	0.023179
667.000000	0.023256
666.000000	0.023355
665.000000	0.023451
664.000000	0.023566
663.000000	0.023669
662.000000	0.023820
661.000000	0.024027
660.000000	0.024271
659.000000	0.024355
658.000000	0.024535
657.000000	0.024729
656.000000	0.024969
655.000000	0.025150
654.000000	0.025385
653.000000	0.025707
652.000000	0.025984
651.000000	0.026362
650.000000	0.026663
649.000000	0.027076
648.000000	0.027393
647.000000	0.027773
646.000000	0.028272
645.000000	0.028723
644.000000	0.029309
643.000000	0.029802
642.000000	0.030356
641.000000	0.030984
640.000000	0.031705
639.000000	0.032300
638.000000	0.032994
637.000000	0.033732
636.000000	0.034543
635.000000	0.035366
634.000000	0.036205
633.000000	0.037117
632.000000	0.038064
631.000000	0.039030
630.000000	0.040126
629.000000	0.041116
628.000000	0.042033
627.000000	0.043090
626.000000	0.044107
625.000000	0.045229
624.000000	0.046230
623.000000	0.047254
622.000000	0.048347
621.000000	0.049289
620.000000	0.050352
619.000000	0.051331
618.000000	0.052230
617.000000	0.053113
616.000000	0.053971
615.000000	0.054821
614.000000	0.055576
613.000000	0.056232
612.000000	0.056970
611.000000	0.057571
610.000000	0.058159
609.000000	0.058734
608.000000	0.059267
607.000000	0.059758
606.000000	0.060208
605.000000	0.060565
604.000000	0.060933
603.000000	0.061306
602.000000	0.061580
601.000000	0.061813
600.000000	0.062151
599.000000	0.062419
598.000000	0.062716
597.000000	0.062898
596.000000	0.063042
595.000000	0.063178
594.000000	0.063469
593.000000	0.063707
592.000000	0.063942
591.000000	0.064180
590.000000	0.064540
589.000000	0.064696
588.000000	0.065081
587.000000	0.065392
586.000000	0.065629
585.000000	0.066028
584.000000	0.066308
583.000000	0.066740
582.000000	0.067226
581.000000	0.067521
580.000000	0.068030
579.000000	0.068522
578.000000	0.069021
577.000000	0.069404
576.000000	0.069877
575.000000	0.070338
574.000000	0.070825
573.000000	0.071192
572.000000	0.071661
571.000000	0.072203
570.000000	0.072587
569.000000	0.073057
568.000000	0.073366
567.000000	0.073782
566.000000	0.074079
565.000000	0.074326
564.000000	0.074623
563.000000	0.074809
562.000000	0.075073
561.000000	0.075292
560.000000	0.075441
559.000000	0.075548
558.000000	0.075664
557.000000	0.075661
556.000000	0.075655
555.000000	0.075666
554.000000	0.075608
553.000000	0.075566
552.000000	0.075495
551.000000	0.075367
550.000000	0.075209
549.000000	0.075200
548.000000	0.075036
547.000000	0.074795
546.000000	0.074742
545.000000	0.074588
544.000000	0.074351
543.000000	0.074218
542.000000	0.073961
541.000000	0.073821
540.000000	0.073640
539.000000	0.073467
538.000000	0.073230
537.000000	0.073039
536.000000	0.072961
535.000000	0.072733
534.000000	0.072445
533.000000	0.072315
532.000000	0.072129
531.000000	0.071921
530.000000	0.071811
529.000000	0.071641
528.000000	0.071244
527.000000	0.071126
526.000000	0.070892
525.000000	0.070682
524.000000	0.070405
523.000000	0.070132
522.000000	0.069994
521.000000	0.069539
520.000000	0.069359
519.000000	0.069008
518.000000	0.068709
517.000000	0.068404
516.000000	0.068063
515.000000	0.067679
514.000000	0.067318
513.000000	0.066936
512.000000	0.066516
511.000000	0.066159
510.000000	0.065740
509.000000	0.065287
508.000000	0.064930
507.000000	0.064514
506.000000	0.064082
505.000000	0.063677
504.000000	0.063203
503.000000	0.062712
502.000000	0.062355
501.000000	0.061951
500.000000	0.061509
499.000000	0.061054
498.000000	0.060700
497.000000	0.060275
496.000000	0.059898
495.000000	0.059461
494.000000	0.058964
493.000000	0.058480
492.000000	0.058143
491.000000	0.057803
490.000000	0.057261
489.000000	0.056802
488.000000	0.056433
487.000000	0.055974
486.000000	0.055426
485.000000	0.055081
484.000000	0.054572
483.000000	0.054170
482.000000	0.053733
481.000000	0.053364
480.000000	0.052942
479.000000	0.052331
478.000000	0.051923
477.000000	0.051466
476.000000	0.051002
475.000000	0.050516
474.000000	0.050023
473.000000	0.049600
472.000000	0.049159
471.000000	0.048746
470.000000	0.048282
469.000000	0.047899
468.000000	0.047439
467.000000	0.046896
466.000000	0.046514
465.000000	0.046114
464.000000	0.045679
463.000000	0.045200
462.000000	0.044762
461.000000	0.044350
460.000000	0.043902
459.000000	0.043508
458.000000	0.043170
457.000000	0.042760
456.000000	0.042370
455.000000	0.042009
454.000000	0.041656
453.000000	0.041318
452.000000	0.041008
451.000000	0.040688
450.000000	0.040337
449.000000	0.039904
448.000000	0.039582
447.000000	0.039228
446.000000	0.038934
445.000000	0.038658
444.000000	0.038343
443.000000	0.038093
442.000000	0.037835
441.000000	0.037550
440.000000	0.037297
439.000000	0.037083
438.000000	0.036865
437.000000	0.036681
436.000000	0.036496
435.000000	0.036298
434.000000	0.036161
433.000000	0.036055
432.000000	0.035954
431.000000	0.035829
430.000000	0.035759
429.000000	0.035787
428.000000	0.035837
427.000000	0.035935
426.000000	0.035920
425.000000	0.035794
424.000000	0.035818
423.000000	0.035823
422.000000	0.035829
421.000000	0.035776
420.000000	0.035641
419.000000	0.035542
418.000000	0.035535
417.000000	0.035559
416.000000	0.035574
415.000000	0.035502
414.000000	0.035290
413.000000	0.035124
412.000000	0.034947
411.000000	0.034671
410.000000	0.034394
409.000000	0.034122
408.000000	0.033937
407.000000	0.033720
406.000000	0.033489
405.000000	0.033217
404.000000	0.032952
403.000000	0.032715
402.000000	0.032471
401.000000	0.032172
400.000000	0.031945
399.000000	0.031776
398.000000	0.031640
397.000000	0.031626
396.000000	0.031513
395.000000	0.031348
394.000000	0.031197
393.000000	0.031015
392.000000	0.030799
391.000000	0.030561
390.000000	0.030436
389.000000	0.030401
388.000000	0.030221
387.000000	0.029985
386.000000	0.029798
385.000000	0.029579
384.000000	0.029376
383.000000	0.029213
382.000000	0.029028
381.000000	0.028861
380.000000	0.028750
379.000000	0.028546
378.000000	0.028314
377.000000	0.027956
376.000000	0.027791
375.000000	0.027772
374.000000	0.027695
373.000000	0.027540
372.000000	0.027444
371.000000	0.027210
370.000000	0.027154
369.000000	0.027002
368.000000	0.026878
367.000000	0.026673
366.000000	0.026505
365.000000	0.026284
364.000000	0.026195
363.000000	0.025960
362.000000	0.025728
361.000000	0.025488
360.000000	0.025257
359.000000	0.024981
358.000000	0.024757
357.000000	0.024413
356.000000	0.024163
355.000000	0.023858
354.000000	0.023491
353.000000	0.023211
352.000000	0.022970
351.000000	0.022715
350.000000	0.022313
349.000000	0.022096
348.000000	0.021830
347.000000	0.021619
346.000000	0.021411
345.000000	0.021070
344.000000	0.020837
343.000000	0.020636
342.000000	0.020454
341.000000	0.020235
340.000000	0.020001
339.000000	0.019970
338.000000	0.019776
337.000000	0.019513
336.000000	0.019305
335.000000	0.019259
334.000000	0.019247
333.000000	0.019054
332.000000	0.018831
331.000000	0.018503
330.000000	0.018468
329.000000	0.018455
328.000000	0.018314
327.000000	0.017943
326.000000	0.017808
325.000000	0.017649
324.000000	0.017436
323.000000	0.017523
322.000000	0.017331
321.000000	0.017387
320.000000	0.017154
