<?xml version="1.0" encoding="UTF-8"?>
<xrdMeasurements xmlns="http://www.xrdml.com/XRDMeasurement/1.6" xmlns:xsi="http://www.w3.org/2001/XMLSchema-instance" xsi:schemaLocation="http://www.xrdml.com/XRDMeasurement/1.6 http://www.xrdml.com/XRDMeasurement/1.6/XRDMeasurement.xsd" status="Completed">
	<comment>
		<entry>Configuration=Reflection-transmission spinner, Owner=User-1, Creation date=4/10/2017 10:06:33 AM</entry>
		<entry>Goniometer=Theta/Theta; Minimum step size 2Theta:0.0001; Minimum step size Omega:0.0001</entry>
		<entry>Sample stage=Reflection-transmission spinner; Minimum step size Phi:0.1</entry>
		<entry>Diffractometer system=EMPYREAN</entry>
		<entry>Measurement program=C:\PANalytical\Data Collector\Programs\BBHD-FASS_4-70_step01_40s.xrdmp, Identifier={18B9A657-479F-45FB-BE68-E535709FCE05}</entry>
		<entry>Batch program=C:\PANalytical\Data Collector\Programs\BBHD-FASS_4-70_step01_40s_Omar_6 samples.xrdmp, Identifier={D0DF481D-C866-435E-BCBB-469939A807AC}</entry>
	</comment>
	<sample type="To be analyzed">
		<id></id>
		<name></name>
		<preparedBy></preparedBy>
	</sample>
	<xrdMeasurement measurementType="Scan" status="Completed" sampleMode="Reflection">
		<comment>
			<entry>PHD Lower Level = 5.63 (keV), PHD Upper Level = 11.27 (keV)</entry>
		</comment>
		<usedWavelength intended="K-Alpha 1">
			<kAlpha1 unit="Angstrom">1.5405980</kAlpha1>
			<kAlpha2 unit="Angstrom">1.5444260</kAlpha2>
			<kBeta unit="Angstrom">1.3922500</kBeta>
			<ratioKAlpha2KAlpha1>0.5000</ratioKAlpha2KAlpha1>
		</usedWavelength>
		<incidentBeamPath>
			<radius unit="mm">240.00</radius>
			<xRayTube id="1010048" name="Empyrean Cu LFF HR (9430 033 7310x) DK426503">
				<tension unit="kV">45.0</tension>
				<current unit="mA">40.0</current>
				<anodeMaterial>Cu</anodeMaterial>
				<focus type="Line">
					<length unit="mm">12.0</length>
					<width unit="mm">0.4</width>
					<takeOffAngle unit="deg">4.4</takeOffAngle>
				</focus>
			</xRayTube>
			<xRayMirror id="27020009" name="Bragg-Brentano HD" hybrid="false">
				<crystal type="Graded" shape="Flat">BB/HD</crystal>
				<acceptanceAngle unit="deg">0.800</acceptanceAngle>
				<length unit="mm">55.3</length>
			</xRayMirror>
		</incidentBeamPath>
		<sampleMovement xsi:type="spinningSampleMovementType">
			<spinnerRevolutionTime unit="seconds">1.0</spinnerRevolutionTime>
		</sampleMovement>
		<diffractedBeamPath>
			<radius unit="mm">240.00</radius>
			<antiScatterSlit id="22090009" name="AS slit 7.5 mm (PIXcel)" xsi:type="fixedAntiScatterSlitType">
				<height unit="mm">7.50</height>
			</antiScatterSlit>
			<sollerSlit id="21010002" name="Soller slits 0.04 rad.">
				<opening unit="rad">0.0400</opening>
			</sollerSlit>
			<detector id="7010019" name="PIXcel1D-Medipix3 detector" xsi:type="rtmsDetectorType">
				<phd>
					<lowerLevel unit="%">35.0</lowerLevel>
					<upperLevel unit="%">70.0</upperLevel>
				</phd>
				<mode>Scanning</mode>
				<activeLength unit="deg">3.3482</activeLength>
			</detector>
		</diffractedBeamPath>
		<scan appendNumber="0" mode="Continuous" scanAxis="Gonio" status="Completed">
			<header>
				<startTimeStamp>2021-03-16T13:10:14+03:00</startTimeStamp>
				<endTimeStamp>2021-03-16T13:24:36+03:00</endTimeStamp>
				<author>
					<name>XRD</name>
				</author>
				<source>
					<applicationSoftware version="5.4">Data Collector</applicationSoftware>
					<instrumentControlSoftware version="7.9d 20161215">EMPYREAN</instrumentControlSoftware>
					<instrumentID>0000000011193406</instrumentID>
				</source>
			</header>
			<dataPoints>
				<positions axis="2Theta" unit="deg">
					<startPosition>4.00656514</startPosition>
					<endPosition>69.99936587</endPosition>
				</positions>
				<positions axis="Omega" unit="deg">
					<startPosition>2.00328257</startPosition>
					<endPosition>34.99968294</endPosition>
				</positions>
				<positions axis="Phi" unit="deg">
					<commonPosition>260.6</commonPosition>
				</positions>
				<commonCountingTime unit="seconds">39.270</commonCountingTime>
				<intensities unit="counts">1305 1310 1345 1280 1252 1334 1321 1300 1319 1340 1346 1360 1290 1317 1289 1263 1268 1367 1265 1333 1284 1294 1258 1360 1277 1300 1231 1312 1300 1305 1318 1380 1239 1247 1248 1323 1228 1349 1301 1267 1291 1320 1245 1371 1241 1293 1280 1163 1338 1292 1225 1232 1230 1239 1228 1220 1332 1273 1224 1258 1251 1175 1200 1231 1175 1241 1224 1266 1255 1324 1220 1252 1213 1246 1243 1208 1180 1332 1193 1272 1229 1259 1168 1198 1223 1195 1196 1270 1209 1199 1203 1179 1185 1217 1228 1188 1194 1198 1214 1203 1225 1223 1198 1258 1168 1160 1270 1197 1240 1213 1216 1279 1234 1205 1173 1216 1210 1207 1152 1193 1178 1211 1140 1168 1172 1178 1208 1181 1162 1246 1187 1248 1196 1146 1156 1152 1199 1190 1139 1190 1182 1194 1107 1146 1198 1223 1170 1198 1166 1192 1105 1140 1168 1157 1140 1178 1156 1198 1143 1184 1140 1143 1138 1148 1120 1202 1191 1165 1102 1130 1105 1128 1177 1168 1138 1139 1142 1127 1121 1113 1087 1071 1139 1138 1093 1080 1141 1062 1122 1018 1157 1087 1077 1113 1090 1104 1163 1048 1104 1065 1093 1000 1096 1108 1087 1122 1104 1140 1091 1103 1092 1103 1092 1053 1053 1100 1112 1038 1061 1095 1040 1014 1036 1014 1081 1004 1141 1077 1048 1037 1088 1090 1040 1016 1044 969 987 1048 1022 1095 1030 1032 1033 1077 999 1029 1069 998 1030 1043 1029 1020 1024 1032 1052 1031 1027 1077 1005 1054 1003 994 1006 1022 986 993 1022 1057 1055 1014 1025 978 941 985 1017 1006 1043 951 1018 1045 987 992 944 1044 999 954 954 1026 1002 1040 1003 1023 1001 991 967 1024 1000 1016 989 945 959 1029 1053 968 992 943 978 977 990 960 985 951 1011 989 954 953 973 965 933 1003 1020 946 933 1017 989 965 985 1024 1038 990 1023 984 885 1031 931 966 1012 928 907 980 911 1006 931 929 972 999 975 1008 925 896 920 904 966 919 966 952 900 947 946 896 892 939 927 889 872 930 931 1001 988 886 867 910 902 940 982 914 889 881 898 875 894 856 907 845 954 862 903 889 873 842 834 865 892 897 859 898 912 906 791 844 854 859 841 868 866 830 865 858 866 910 871 842 861 810 843 851 855 827 800 832 845 843 849 899 859 832 832 849 819 831 888 885 823 872 863 816 861 810 807 806 823 822 782 846 823 798 767 801 794 835 824 815 776 804 790 784 805 799 875 853 807 777 831 822 784 821 811 826 780 759 816 793 754 800 824 792 807 823 834 852 853 861 867 873 849 854 884 870 954 941 947 946 972 1077 1127 1157 1017 943 847 787 821 751 781 767 736 776 775 782 770 786 771 743 743 799 793 717 744 733 764 742 745 731 763 745 717 731 742 722 757 751 732 774 736 710 770 777 757 745 708 720 667 718 691 744 725 723 679 718 742 743 700 708 677 647 719 730 763 769 753 703 737 722 751 744 689 675 707 691 731 716 756 697 710 716 697 720 715 704 690 721 695 704 707 651 680 697 675 682 669 685 722 684 685 670 685 697 686 716 671 681 670 727 685 657 683 702 693 686 682 689 675 662 744 685 673 674 768 714 663 662 702 648 703 683 686 698 686 684 671 653 660 705 705 678 678 710 690 676 682 665 688 696 675 685 675 656 751 735 719 658 701 655 681 662 619 625 630 678 661 612 653 623 618 621 626 648 643 644 607 653 633 632 654 648 634 631 634 639 625 643 608 687 628 628 630 651 612 607 591 652 616 599 651 662 612 622 578 614 591 603 617 616 575 603 626 609 633 664 617 633 632 664 586 609 636 576 611 581 632 596 614 643 661 688 620 733 668 711 776 793 861 930 989 988 978 889 723 671 691 650 723 701 696 755 773 769 880 883 951 972 954 983 845 747 739 644 646 582 600 611 565 573 569 561 541 535 547 522 560 535 578 558 506 487 511 546 563 556 551 561 540 536 554 581 517 527 519 535 546 555 519 571 526 516 481 476 513 525 516 535 535 531 600 511 526 514 564 520 505 484 524 539 570 522 532 532 539 527 529 476 519 518 500 519 546 500 540 512 504 539 528 546 524 504 544 554 535 560 501 500 548 510 529 596 519 503 525 519 521 525 531 508 483 530 489 515 517 556 480 476 539 530 464 459 503 516 522 520 470 466 486 513 492 493 463 512 441 481 521 461 461 493 462 483 456 505 495 485 466 476 510 457 516 510 499 538 495 496 519 492 503 479 487 430 515 465 494 446 475 503 448 494 480 440 456 465 501 465 451 466 476 449 468 447 458 442 511 443 490 428 424 454 486 435 454 452 542 460 454 469 455 480 476 440 468 423 445 470 445 464 465 459 470 429 428 418 422 450 441 404 378 442 433 470 421 457 428 451 462 446 456 469 419 473 457 441 452 469 436 423 413 436 443 428 455 423 442 442 427 416 430 423 439 442 447 422 431 435 421 415 445 434 453 456 486 406 424 433 454 403 411 460 433 442 424 439 415 416 413 424 390 428 391 419 420 405 383 437 404 443 454 408 446 400 397 446 451 459 440 446 447 413 441 418 471 407 431 425 398 435 400 471 417 426 410 406 404 416 427 410 431 387 408 421 416 370 399 407 382 439 418 438 435 377 433 394 403 403 410 357 401 391 392 405 398 404 379 388 393 405 385 411 404 346 409 403 402 357 389 410 385 401 404 391 409 405 379 406 367 374 419 391 421 416 460 459 418 443 398 435 400 390 424 396 358 424 407 413 410 385 406 409 383 385 399 406 390 445 441 440 386 419 395 384 392 387 387 379 392 398 380 371 406 382 395 384 401 398 415 407 413 398 436 407 416 387 391 425 403 402 408 393 375 391 423 406 376 410 406 408 389 392 441 381 456 441 423 439 416 433 419 405 409 432 388 423 451 458 434 424 439 411 444 461 445 453 420 436 415 379 397 436 438 460 426 424 428 401 423 389 415 404 375 433 422 398 415 392 409 429 449 442 417 415 383 391 388 407 460 454 445 393 465 433 385 451 457 412 475 452 450 464 491 527 571 536 625 652 686 686 728 784 861 929 973 1135 1345 1607 1719 1908 2066 2439 2891 3254 3552 4568 5614 7166 9440 12493 15461 18499 20745 18988 14654 11522 10064 7810 4799 2498 1525 1142 979 1054 1040 1018 895 772 852 750 667 614 550 483 484 493 406 409 425 399 439 421 371 423 432 405 422 413 412 445 387 420 379 377 400 358 372 415 387 402 368 358 379 369 391 381 337 359 357 370 338 364 377 391 313 386 356 373 356 387 341 410 386 387 389 390 416 390 398 389 400 378 395 434 521 585 617 647 805 877 824 675 647 602 576 508 456 441 414 378 410 372 359 403 328 402 370 338 352 392 380 380 349 379 371 370 380 398 383 386 401 418 433 457 449 483 419 469 463 410 418 425 378 393 363 456 431 417 372 361 379 342 337 348 342 350 324 333 323 356 367 382 347 359 358 373 333 370 373 393 389 418 409 435 445 376 474 474 440 424 444 455 434 403 418 397 425 407 416 396 398 397 391 390 403 420 335 373 376 399 381 409 425 392 448 424 427 492 430 503 582 682 638 689 696 747 818 816 792 737 684 678 704 721 710 625 549 528 480 460 447 429 440 406 439 402 430 432 461 477 468 487 571 711 784 700 717 818 874 766 630 598 622 505 515 420 412 435 397 409 408 375 365 407 397 443 538 670 812 684 643 696 708 708 652 622 613 505 513 532 458 441 406 397 376 368 353 318 358 333 333 348 347 357 322 337 340 315 300 336 321 327 340 345 333 375 344 337 381 347 349 302 346 341 327 342 313 342 354 311 341 303 341 320 370 315 338 327 340 322 328 354 369 336 359 334 333 321 389 352 363 369 350 388 374 367 343 330 324 334 344 376 339 361 348 345 368 410 381 372 415 416 407 452 420 476 515 488 565 550 601 621 601 563 567 573 560 574 528 527 494 488 461 463 431 409 416 373 383 395 390 418 387 424 402 415 440 419 427 420 397 442 422 456 449 424 464 464 482 465 497 506 506 559 501 508 527 609 563 555 638 620 653 663 750 824 847 870 1112 1211 1348 1596 1854 2180 2477 2935 3593 4180 5040 6068 7171 8663 10238 12741 16241 20435 26112 32744 40213 50285 66745 86777 100168 89980 63068 48051 45291 46000 39849 25511 13338 6934 3958 2659 2139 1694 1594 1439 1247 1140 1183 1112 964 970 900 852 815 755 823 719 737 760 820 803 752 754 722 705 683 698 667 644 614 631 680 697 711 639 651 631 672 714 729 742 909 991 1137 1392 1663 2158 2823 3712 5076 6258 6846 6444 5208 4782 4810 4830 4129 2968 2205 1764 1518 1184 965 819 683 696 664 707 720 758 759 762 865 976 1050 1159 1119 1212 1293 1459 1504 1527 1709 2509 3554 4483 4084 3231 2813 3015 3235 2890 2442 2084 1807 1578 1218 1106 1169 1171 991 748 593 595 602 537 495 397 413 420 417 398 413 350 368 375 358 320 323 334 316 349 348 332 344 346 336 316 299 299 320 300 326 278 284 300 285 312 278 267 268 277 269 281 291 258 233 264 268 257 241 262 242 287 243 244 231 292 259 263 275 234 268 265 260 244 233 220 229 246 235 286 247 242 282 251 237 256 271 242 250 276 287 290 292 270 303 278 268 289 322 298 338 301 331 343 364 350 392 407 447 423 386 365 365 348 362 337 356 340 323 287 279 317 313 320 300 314 336 356 371 334 360 339 316 357 381 375 343 390 322 336 334 349 353 343 361 360 328 325 320 334 366 369 328 337 335 384 337 361 365 357 334 351 352 365 339 346 353 395 391 362 358 401 394 433 463 424 394 404 432 403 456 425 424 356 338 432 506 481 488 425 400 399 415 453 402 323 359 274 282 284 277 292 274 267 296 330 316 365 334 357 355 396 372 362 383 369 377 388 385 370 383 379 353 349 339 293 313 291 261 279 238 241 265 244 220 237 249 242 214 237 274 277 240 291 286 292 273 282 289 283 261 258 281 277 267 280 261 288 266 262 247 261 267 264 265 239 262 257 256 226 261 243 239 238 242 266 278 281 321 300 256 220 236 262 300 263 249 259 275 284 284 275 285 279 271 273 222 247 267 259 227 214 264 216 198 230 242 212 247 247 240 233 256 230 269 261 212 239 205 264 224 206 262 257 266 278 283 262 239 268 236 256 257 258 265 259 265 228 280 282 234 267 220 241 222 239 239 237 205 189 177 247 239 220 228 214 207 222 210 206 211 227 239 222 234 197 201 218 220 209 223 199 218 226 208 226 218 195 223 213 216 214 203 202 217 220 198 224 209 194 268 231 215 211 181 196 213 220 233 261 222 242 215 215 223 200 209 199 230 212 201 211 229 226 225 205 187 202 186 200 242 216 228 213 219 220 237 229 222 217 208 212 210 213 228 186 224 209 198 200 202 225 220 218 267 263 244 234 240 241 225 216 232 204 213 216 221 217 207 226 243 211 217 230 219 239 233 243 237 217 227 230 235 243 220 258 243 244 225 259 263 305 300 321 258 251 287 287 296 310 299 246 282 316 290 270 271 301 267 270 284 279 276 285 266 273 263 264 286 292 283 269 271 288 281 272 278 312 306 308 320 395 517 616 578 483 392 403 380 492 512 499 440 406 399 375 385 420 434 445 440 465 503 461 500 401 393 356 361 378 388 313 347 303 305 280 272 306 305 343 309 306 320 311 284 296 284 289 290 298 313 265 267 275 301 281 264 240 276 274 277 297 269 307 292 290 292 239 259 261 271 243 237 256 229 227 278 246 231 240 215 284 225 261 234 247 238 251 266 241 274 262 251 285 299 277 290 237 229 266 228 278 275 259 243 269 220 247 279 273 282 315 345 307 335 394 373 390 452 566 669 697 873 1019 1310 1779 2302 2920 3802 4403 4916 5255 4867 4209 3292 2782 2534 2651 2661 2343 1921 1399 885 599 479 349 356 305 334 278 282 281 303 274 275 263 259 273 261 283 293 294 263 303 284 263 257 274 265 282 259 247 276 244 277 216 249 232 205 233 209 224 268 214 226 233 245 246 238 223 257 266 251 231 244 260 243 272 237 208 230 206 212 250 261 218 228 242 258 229 191 222 242 238 241 244 222 213 281 242 236 260 239 228 216 227 229 200 239 221 211 223 199 212 192 195 202 223 198 210 195 189 213 184 206 203 218 190 176 205 191 203 208 192 215 220 185 201 216 181 229 191 195 184 203 202 217 202 196 216 202 182 206 228 215 218 214 208 221 262 228 214 226 198 223 230 238 230 256 231 240 257 258 233 216 257 239 279 272 314 282 261 284 240 293 269 280 261 258 245 298 233 270 268 206 247 244 259 205 234 236 237 224 232 246 212 248 242 263 242 262 238 242 289 276 256 308 322 335 369 420 432 476 531 612 726 969 1296 1546 2054 2612 3304 4033 4525 4069 2966 2034 1656 1683 1861 2112 2316 1905 1278 778 565 404 338 278 276 290 264 267 288 271 268 249 210 220 248 220 256 200 238 212 249 220 222 193 209 223 210 209 236 223 223 251 236 238 264 283 270 283 342 359 385 480 515 590 715 844 1095 1343 1902 2410 2802 2845 2366 1810 1257 1039 1246 1351 1523 1420 1258 860 597 439 359 274 269 232 228 225 220 222 205 209 188 208 215 247 191 192 199 187 186 198 227 180 197 189 208 195 205 188 196 198 188 216 203 220 182 183 201 179 207 188 166 193 187 203 191 214 197 228 189 181 186 219 201 184 201 192 183 208 189 208 199 202 216 216 225 181 203 218 213 188 227 218 206 214 207 216 208 216 204 211 232 211 191 224 208 200 230 260 258 240 243 276 283 292 319 335 368 363 370 388 408 376 356 350 372 283 299 309 302 275 282 236 287 260 243 220 193 208 225 201 216 198 218 206 226 220 212 223 217 179 225 248 241 280 274 296 349 376 432 497 555 655 756 780 1108 1381 1807 2153 2721 3478 4178 4678 3964 3013 2140 1666 1660 1766 2075 2264 2202 1671 1119 802 543 433 362 322 287 271 307 263 257 264 257 268 248 249 279 240 263 223 228 237 263 228 206 240 269 256 259 286 282 276 292 271 256 228 241 232 256 241 232 241 218 228 225 194 194 229 221 242 199 174 194 184 196 188 213 179 203 194 177 168 184 170 159 196 173 206 192 200 211 193 193 216 197 193 199 186 168 188 180 202 201 194 187 195 186 183 199 192 189 187 179 181 188 156 180 164 191 186 186 197 168 188 195 169 202 200 182 178 195 200 219 195 186 212 191 202 203 185 199 196 214 191 185 203 205 197 204 192 175 181 202 176 188 163 170 192 169 140 185 171 176 189 175 168 154 168 163 180 161 178 190 179 193 188 203 201 204 215 197 199 190 166 188 209 235 235 217 221 204 189 193 182 218 160 200 180 178 174 206 191 191 198 185 216 207 173 198 184 210 205 195 210 185 195 197 173 193 196 163 177 191 187 193 206 219 206 214 187 179 196 203 195 194 205 200 203 208 211 229 242 229 219 248 247 242 260 249 309 325 343 405 462 611 653 622 820 920 1205 1682 2183 2841 3163 3179 2681 1900 1382 1140 1060 1316 1548 1675 1665 1523 1112 716 479 378 364 321 281 263 258 261 233 223 223 221 210 222 227 224 204 239 202 223 212 181 207 214 190 198 164 201 195 194 176 212 179 186 177 172 177 179 182 170 194 185 157 161 161 187 195 184 150 178 148 177 145 154 160 148 167 160 190 150 168 199 186 172 175 202 177 161 201 193 178 197 194 185 200 169 160 179 194 170 190 197 204 184 195 192 189 198 188 199 197 200 209 195 208 194 200 193 177 196 159 166 210 199 198 182 185 157 193 181 157 191 203 206 194 187 181 171 187 183 191 196 173 190 197 170 177 202 180 179 198 164 169 166 162 170 197 160 166 170 154 155 172 177 177 181 186 176 178 182 178 174 222 192 160 197 205 158 184 166 208 207 193 207 215 215 226 208 220 198 213 220 211 199 208 206 237 217 227 232 214 231 212 205 237 198 199 203 204 201 184 193 212 209 186 202 200 190 188 199 194 186 182 192 208 191 192 220 184 217 183 195 199 216 194 187 194 217 228 189 191 225 198 213 206 200 212 218 199 206 220 235 243 249 261 237 241 199 200 190 209 208 210 215 189 216 212 205 233 217 219 177 191 197 192 173 227 183 186 193 186 190 181 198 209 182 171 198 199 180 168 212 195 196 189 226 230 269 229 247 230 220 235 223 240 275 296 330 301 333 456 544 694 650 561 453 416 401 398 428 486 535 587 639 624 599 658 789 896 1182 1479 1983 2518 3232 4304 5171 6554 7573 7548 6338 4589 3201 2310 2198 2446 2801 3362 3719 3891 3267 2355 1506 931 673 523 422 386 375 355 339 315 318 308 333 350 391 408 470 482 520 525 540 513 586 572 545 482 441 429 476 520 481 480 501 481 417 452 368 325 347 297 325 316 298 332 303 289 288 267 238 224 232 221 242 231 220 240 196 234 232 235 218 230 220 247 221 241 209 231 226 233 203 243 314 358 416 424 394 311 268 257 274 273 214 270 306 310 312 243 221 226 225 202 211 190 205 215 179 164 169 190 180 185 162 195 176 135 175 191 177 152 176 167 177 165 148 155 172 164 147 169 159 163 160 158 173 182 170 167 180 166 180 170 145 155 190 175 174 163 187 157 184 174 180 174 184 189 161 184 182 191 196 189 199 179 204 199 192 174 173 189 179 179 189 177 184 187 196 167 172 170 154 173 178 173 184 178 191 177 179 192 181 185 192 195 175 178 174 177 198 197 178 173 184 186 195 206 169 181 178 186 176 172 183 171 165 176 195 185 180 176 190 180 193 196 202 256 224 204 227 216 221 234 198 211 232 190 215 223 216 202 198 201 198 177 200 232 191 182 180 184 182 215 191 177 158 173 169 160 190 160 175 179 174 137 175 156 169 177 156 153 197 164 170 177 181 189 181 181 160 167 193 192 173 198 169 167 190 181 197 177 184 174 189 161 166 173 196 177 170 166 171 178 154 172 170 186 191 182 163 177 162 173 205 173 163 162 209 180 184 174 218 185 183 207 188 183 196 194 187 180 191 200 213 234 215 221 259 231 233 247 232 200 263 269 273 305 375 409 477 615 747 1017 1332 1687 2118 2523 3074 3157 2979 2330 1583 1120 962 914 1018 1145 1356 1509 1681 1653 1354 913 687 514 405 344 256 294 294 269 275 284 312 313 355 388 397 467 559 566 754 776 811 696 540 424 403 368 364 361 405 405 499 475 508 428 326 320 248 227 267 238 185 222 207 197 180 197 200 200 170 178 202 186 192 175 164 180 174 180 179 176 192 179 193 195 195 178 174 192 193 179 188 180 169 176 181 169 168 187 201 186 174 162 154 191 184 187 200 179 172 160 166 171 175 167 182 191 167 170 188 180 149 170 158 178 168 173 150 179 163 159 176 175 172 174 161 172 169 189 181 192 156 181 171 198 174 209 157 186 178 217 186 191 183 202 195 193 200 182 173 173 175 175 179 137 183 167 161 177 166 189 156 149 165 180 196 204 181 180 179 230 247 264 290 287 301 297 259 232 211 197 199 227 221 229 260 227 248 234 214 215 196 204 177 203 181 206 197 191 181 163 187 161 176 176 177 170 188 196 186 178 164 196 172 185 189 160 201 181 174 197 167 180 170 214 188 194 212 181 199 151 207 152 165 169 172 155 167 163 167 159 161 193 173 191 199 204 168 199 179 178 180 185 148 172 168 183 174 158 163 183 148 192 170 153 159 160 165 181 161 180 186 162 187 207 217 175 178 186 192 224 198 184 182 198 205 207 209 222 192 191 206 191 201 192 190 182 204 197 191 195 182 181 183 185 195 183 187 161 158 186 162 177 173 164 177 170 164 179 167 169 166 182 184 197 200 193 163 163 203 184 190 178 198 203 193 181 183 215 193 167 189 181 183 177 175 175 181 200 172 209 223 192 196 202 199 216 203 205 215 247 240 220 220 270 283 298 285 312 332 381 418 497 595 746 929 1181 1519 1971 2356 2944 3671 4329 4694 4680 3785 2713 1963 1469 1326 1301 1441 1604 1846 2138 2322 2445 2141 1676 1193 847 630 448 414 356 313 281 267 282 237 280 221 225 225 261 234 229 205 217 233 190 198 233 232 230 215 207 246 226 271 221 222 197 185 168 201 195 215 191 201 198 235 207 198 227 197 228 186 186 203 178 191 183 189 198 208 180 184 191 174 197 173 195 165 196 190 186 179 185 180 148 199 175 193 187 184 185 177 173 190 174 182 185 205 190 207 178 170 217 194 194 216 167 188 184 200 162 188 190 192 180 195 175 175 188 167 184 182 196 189 179 187 216 186 184 210 200 198 203 207 184 216 158 192 186 205 197 217 221 202 213 198 203 225 189 203 210 216 228 225 218 230 222 216 211 198 229 198 225 219 238 218 196 191 190 184 166 185 176 185 200 225 213 179 189 183 190 184 195 160 190 160 151 175 169 174 152 141 195 157 167 157 176 189 177 165 161 196 175 175 176 144 179 157 153 152 167 142 172 172 178 172 177 176 192 161 147 181 159 173 180 171 171 170 171 179 185 155 200 203 186 202 177 184 264 257 243 187 207 196 181 179 174 170 165 195 188 211 199 208 195 198 206 212 167 185 184 197 193 199 226 186 175 196 207 205 196 208 211 190 192 191 200 176 216 218 210 225 219 220 214 224 229 237 229 223 211 234 256 240 266 247 262 294 315 341 416 432 471 586 693 847 1014 1068 1051 917 683 539 437 404 349 387 396 403 443 536 573 654 546 489 385 334 267 196 232 266 195 229 180 195 210 174 177 171 173 172 187 187 195 158 183 205 168 168 170 183 192 179 197 190 194 207 187 191 184 175 221 176 201 158 168 195 176 181 191 178 178 176 200 194 199 187 180 194 193 178 173 194 187 206 170 186 178 212 196 181 179 200 170 205 194 229 201 214 212 205 191 187 206 216 225 189 211 214 215 199 200 217 192 183 207 193 239 246 227 220 195 212 166 192 183 186 185 194 211 219 210 214 241 240 219 229 277 336 384 403 406 430 383 354 291 258 232 215 209 239 232 251 230 292 302 298 285 291 243 226 223 218 187 179 181 205 173 180 184 200 193 203 184 220 202 207 216 218 210 220 167 212 196 223 220 230 219 233 212 262 225 235 243 246 235 211 277 240 214 215 223 230 229 221 218 210 196 227 224 193 224 204 186 181 190 192 202 195 189 190 170 187 189 172 193 173 207 212 197 198 194 194 177 198 197 201 204 194 212 204 228 206 204 224 214 181 237 214 208 200 214 209 219 222 227 233 220 227 229 225 241 211 231 228 241 230 266 247 258 228 271 316 288 280 308 329 339 354 392 518 543 644 869 1046 1307 1709 2149 2736 3276 3674 3884 3529 2921 2156 1656 1206 968 989 1004 1140 1242 1417 1728 1975 2115 2133 1864 1622 1270 1015 934 943 977 1106 1283 1620 1990 2362 2674 3060 3714 3771 3282 2630 2076 1769 1742 1778 2049 2563 3373 4272 5282 5857 5761 5374 4373 3428 2397 1745 1431 1248 1092 1226 1407 1678 2038 2229 2369 2298 1848 1443 1029 812 645 506 470 409 330 346 297 284 294 260 270 276 215 271 226 231 234 246 203 207 199 212 208 240 213 191 221 203 197 186 197 175 181 198 186 183 218 191 178 187 192 199 177 188 195 187 209 168 184 180 186 211 190 178 192 217 208 184 186 177 228 200 210 181 196 189 194 191 170 206 173 170 176 225 201 159 165 205 210 180 204 185 170 177 185 166 175 177 192 181 167 181 177 186 201 182 196 180 162 181 172 159 197 179 169 172 203 196 170 189 171</intensities>
			</dataPoints>
		</scan>
	</xrdMeasurement>
</xrdMeasurements>
